time(ms),ecg
0.365625,0
2.31875,-0.0004768371582
4.271875,-0.0004768371582
6.225,-0.001430511475
8.178125,-0.001430511475
10.13125,-0.0004768371582
12.084375,-0.003814697266
14.0375,0
15.990625,-0.001430511475
17.94375,-0.009536743164
19.896875,0.01955032349
21.85,0.01192092896
23.803125,-0.06675720215
25.75625,-0.08630752563
27.709375,-0.04196166992
29.6625,-0.04720687866
31.615625,-0.1072883606
33.56875,-0.1382827759
35.521875,-0.1535415649
37.475,-0.1888275146
39.428125,-0.2336502075
41.38125,-0.2303123474
43.334375,-0.09918212891
45.2875,0.06341934204
47.240625,0.1993179321
49.19375,0.3700256348
51.146875,0.4916191101
53.1,0.5307197571
55.053125,0.554561615
57.00625,0.5326271057
58.959375,0.4796981812
60.9125,0.4692077637
62.865625,0.4930496216
64.81875,0.506401062
66.771875,0.5068778992
68.725,0.4849433899
70.678125,0.4487037659
72.63125,0.4358291626
74.584375,0.4453659058
76.5375,0.4463195801
78.490625,0.4115104675
80.44375,0.4134178162
82.396875,0.4315376282
84.35,0.3981590271
86.303125,0.3952980042
88.25625,0.4143714905
90.209375,0.4005432129
92.1625,0.391960144
94.115625,0.4186630249
96.06875,0.4482269287
98.021875,0.4510879517
99.975,0.4396438599
101.928125,0.415802002
103.88125,0.3972053528
105.834375,0.40102005
107.7875,0.4186630249
109.740625,0.4096031189
111.69375,0.3871917725
113.646875,0.3809928894
115.6,0.3800392151
117.553125,0.4091262817
119.50625,0.412940979
121.459375,0.3790855408
123.4125,0.3943443298
125.365625,0.4172325134
127.31875,0.4234313965
129.271875,0.4472732544
131.225,0.4549026489
133.178125,0.4324913025
135.13125,0.4363059998
137.084375,0.4620552063
139.0375,0.4329681396
140.990625,0.4138946533
142.94375,0.452041626
144.896875,0.4382133484
146.85,0.4239082336
148.803125,0.4644393921
150.75625,0.4725456238
152.709375,0.4601478577
154.6625,0.4653930664
156.615625,0.476360321
158.56875,0.4625320435
160.521875,0.4525184631
162.475,0.5054473877
164.428125,0.5350112915
166.38125,0.5030632019
168.334375,0.5145072937
170.2875,0.5269050598
172.240625,0.5207061768
174.19375,0.560760498
176.146875,0.5784034729
178.1,0.5640983582
180.053125,0.5779266357
182.00625,0.6041526794
183.959375,0.5960464478
185.9125,0.5903244019
187.865625,0.6108283997
189.81875,0.6184577942
191.771875,0.6251335144
193.725,0.6418228149
195.678125,0.6799697876
197.63125,0.7147789001
199.584375,0.7281303406
201.5375,0.7538795471
203.490625,0.7586479187
205.44375,0.7610321045
207.396875,0.7905960083
209.35,0.8177757263
211.303125,0.8392333984
213.25625,0.8473396301
215.209375,0.8654594421
217.1625,0.8926391602
219.115625,0.9140968323
221.06875,0.9589195251
223.021875,0.9913444519
224.975,0.9870529175
226.928125,0.9880065918
228.88125,1.008987427
230.834375,1.040935516
232.7875,1.059055328
234.740625,1.057624817
236.69375,1.076698303
238.646875,1.109600067
240.6,1.114368439
242.553125,1.119613647
244.50625,1.130104065
246.459375,1.130104065
248.4125,1.142978668
250.365625,1.148700714
252.31875,1.138687134
254.271875,1.120567322
256.225,1.109600067
258.178125,1.128196716
260.13125,1.137256622
262.084375,1.124382019
264.0375,1.107692719
265.990625,1.080036163
267.94375,1.060009003
269.896875,1.034259796
271.85,0.9894371033
273.803125,0.9789466858
275.75625,0.997543335
277.709375,0.9665489197
279.6625,0.9088516235
281.615625,0.8645057678
283.56875,0.8158683777
285.521875,0.7739067078
287.475,0.732421875
289.428125,0.71144104
291.38125,0.6823539734
293.334375,0.6198883057
295.2875,0.5803108215
297.240625,0.5331039429
299.19375,0.4758834839
301.146875,0.4529953003
303.1,0.4305839539
305.053125,0.4029273987
307.00625,0.3490447998
308.959375,0.2746582031
310.9125,0.2369880676
312.865625,0.2212524414
314.81875,0.1983642578
316.771875,0.1606941223
318.725,0.1130104065
320.678125,0.08630752563
322.63125,0.07629394531
324.584375,0.08344650269
326.5375,0.0958442688
328.490625,0.07438659668
330.44375,0.04053115845
332.396875,0.007629394531
334.35,-0.02765655518
336.303125,-0.03957748413
338.25625,-0.02813339233
340.209375,-0.03623962402
342.1625,-0.06246566772
344.115625,-0.07152557373
346.06875,-0.06151199341
348.021875,-0.04959106445
349.975,-0.04768371582
351.928125,-0.04482269287
353.88125,-0.03623962402
355.834375,-0.04100799561
357.7875,-0.0433921814
359.740625,-0.05054473877
361.69375,-0.06484985352
363.646875,-0.06437301636
365.6,-0.05054473877
367.553125,-0.04196166992
369.50625,-0.05769729614
371.459375,-0.08296966553
373.4125,-0.09346008301
375.365625,-0.08058547974
377.31875,-0.0958442688
379.271875,-0.1311302185
381.225,-0.09632110596
383.178125,-0.05912780762
385.13125,-0.0581741333
387.084375,-0.04529953003
389.0375,-0.04434585571
390.990625,-0.05388259888
392.94375,-0.07200241089
394.896875,-0.08869171143
396.85,-0.06914138794
398.803125,-0.03576278687
400.75625,-0.02908706665
402.709375,-0.06341934204
404.6625,-0.07104873657
406.615625,-0.03004074097
408.56875,-0.03004074097
410.521875,-0.04053115845
412.475,-0.001907348633
414.428125,-0.01239776611
416.38125,-0.0262260437
418.334375,0.02288818359
420.2875,0.04196166992
422.240625,0.03433227539
424.19375,0.01668930054
426.146875,-0.004768371582
428.1,-0.006198883057
430.053125,-0.0147819519
432.00625,-0.008106231689
433.959375,-0.004291534424
435.9125,-0.00524520874
437.865625,0.03099441528
439.81875,0.02479553223
441.771875,0.002861022949
443.725,0.03957748413
445.678125,0.0376701355
447.63125,0.02241134644
449.584375,0.05483627319
451.5375,0.04720687866
453.490625,0.03385543823
455.44375,0.05722045898
457.396875,0.06628036499
459.35,0.06437301636
461.303125,0.07915496826
463.25625,0.0901222229
465.209375,0.09918212891
467.1625,0.1034736633
469.115625,0.0524520874
471.06875,0.02098083496
473.021875,0.05722045898
474.975,0.06198883057
476.928125,0.03719329834
478.88125,0.02717971802
480.834375,0.04148483276
482.7875,0.07295608521
484.740625,0.07295608521
486.69375,0.06723403931
488.646875,0.08392333984
490.6,0.07820129395
492.553125,0.0638961792
494.50625,0.07295608521
496.459375,0.084400177
498.4125,0.0958442688
500.365625,0.1068115234
502.31875,0.08821487427
504.271875,0.06723403931
506.225,0.08249282837
508.178125,0.08153915405
510.13125,0.06723403931
512.084375,0.08010864258
514.0375,0.06341934204
515.990625,0.04720687866
517.94375,0.05865097046
519.896875,0.03385543823
521.85,0.01573562622
523.803125,0.01096725464
525.75625,0.004768371582
527.709375,0.04053115845
529.6625,0.06103515625
531.615625,0.02908706665
533.56875,0.02574920654
535.521875,0.03862380981
537.475,0.02479553223
539.428125,0.03290176392
541.38125,0.05340576172
543.334375,0.04005432129
545.2875,0.03004074097
547.240625,0.03814697266
549.19375,0.02193450928
551.146875,0.01621246338
553.1,0.04625320435
555.053125,0.03862380981
557.00625,0.0004768371582
558.959375,-0.01430511475
560.9125,0
562.865625,0.03147125244
564.81875,0.0581741333
566.771875,0.06866455078
568.725,0.05054473877
570.678125,0.02193450928
572.63125,0.01192092896
574.584375,0.008106231689
576.5375,0.02002716064
578.490625,0.01955032349
580.44375,-0.006198883057
582.396875,-0.007629394531
584.35,-0.0009536743164
586.303125,0.009536743164
588.25625,0.03147125244
590.209375,0.02527236938
592.1625,0.03099441528
594.115625,0.03957748413
596.06875,0.01049041748
598.021875,0.01668930054
599.975,0.04291534424
601.928125,0.0319480896
603.88125,0.0009536743164
605.834375,-0.0262260437
607.7875,-0.02098083496
609.740625,0.006675720215
611.69375,0.02098083496
613.646875,0.02670288086
615.6,0.04005432129
617.553125,0.02527236938
619.50625,-0.0009536743164
621.459375,0.02098083496
623.4125,0.02145767212
625.365625,-0.01096725464
627.31875,-0.01335144043
629.271875,-0.01001358032
631.225,-0.005722045898
633.178125,0.004768371582
635.13125,-0.002861022949
637.084375,-0.009536743164
639.0375,0.01955032349
640.990625,0.04911422729
642.94375,0.02765655518
644.896875,0.01811981201
646.85,0.03242492676
648.803125,-0.0205039978
650.75625,-0.0467300415
652.709375,0.001907348633
654.6625,0.005722045898
656.615625,0.007152557373
658.56875,0.05054473877
660.521875,0.06151199341
662.475,0.05006790161
664.428125,0.0376701355
666.38125,0.0205039978
668.334375,0.004768371582
670.2875,0.003337860107
672.240625,0.02861022949
674.19375,0.05102157593
676.146875,0.05483627319
678.1,0.02956390381
680.053125,0.001430511475
682.00625,0.01001358032
683.959375,0.01430511475
685.9125,0.006675720215
687.865625,0.001430511475
689.81875,0.004768371582
691.771875,0.02193450928
693.725,0.03862380981
695.678125,0.04863739014
697.63125,0.05292892456
699.584375,0.05483627319
701.5375,0.04100799561
703.490625,0.03242492676
705.44375,0.04768371582
707.396875,0.07009506226
709.35,0.06294250488
711.303125,0.01955032349
713.25625,0.01335144043
715.209375,0.03051757813
717.1625,0.01096725464
719.115625,0.007629394531
721.06875,0.03910064697
723.021875,0.04005432129
724.975,0.0319480896
726.928125,0.06532669067
728.88125,0.06723403931
730.834375,0.05292892456
732.7875,0.07724761963
734.740625,0.07295608521
736.69375,0.0638961792
738.646875,0.07247924805
740.6,0.05722045898
742.553125,0.05197525024
744.50625,0.07009506226
746.459375,0.075340271
748.4125,0.08583068848
750.365625,0.1006126404
752.31875,0.1158714294
754.271875,0.1335144043
756.225,0.09632110596
758.178125,0.08010864258
760.13125,0.1068115234
762.084375,0.07629394531
764.0375,0.05531311035
765.990625,0.05912780762
767.94375,0.05102157593
769.896875,0.07295608521
771.85,0.1034736633
773.803125,0.09346008301
775.75625,0.08821487427
777.709375,0.1020431519
779.6625,0.09059906006
781.615625,0.09536743164
783.56875,0.09202957153
785.521875,0.05722045898
787.475,0.05912780762
789.428125,0.06818771362
791.38125,0.06341934204
793.334375,0.07677078247
795.2875,0.0958442688
797.240625,0.1072883606
799.19375,0.1068115234
801.146875,0.1192092896
803.1,0.1215934753
805.053125,0.0958442688
807.00625,0.1287460327
808.959375,0.1664161682
810.9125,0.1316070557
812.865625,0.1111030579
814.81875,0.1192092896
816.771875,0.1201629639
818.725,0.1411437988
820.678125,0.2355575562
822.63125,0.3480911255
824.584375,0.3709793091
826.5375,0.3800392151
828.490625,0.3952980042
830.44375,0.3499984741
832.396875,0.3705024719
834.35,0.4482269287
836.303125,0.4229545593
838.25625,0.3600120544
840.209375,0.3724098206
842.1625,0.3914833069
844.115625,0.3604888916
846.06875,0.3309249878
848.021875,0.3490447998
849.975,0.3814697266
851.928125,0.3871917725
853.88125,0.3771781921
855.834375,0.3395080566
857.7875,0.2889633179
859.740625,0.2346038818
861.69375,0.1616477966
863.646875,0.1225471497
865.6,0.1368522644
867.553125,0.1630783081
869.50625,0.1821517944
871.459375,0.1740455627
873.4125,0.1192092896
875.365625,0.08058547974
877.31875,0.08487701416
879.271875,0.05054473877
881.225,0.004291534424
883.178125,0.01382827759
885.13125,0.03719329834
887.084375,0.03814697266
889.0375,0.0467300415
890.990625,0.07104873657
892.94375,0.1006126404
894.896875,0.1125335693
896.85,0.08773803711
898.803125,0.05340576172
900.75625,0.03337860107
902.709375,0.01955032349
904.6625,0.01955032349
906.615625,0.02765655518
908.56875,0.01764297485
910.521875,0.0009536743164
912.475,0
914.428125,0.01239776611
916.38125,0.03147125244
918.334375,0.02574920654
920.2875,-0.001907348633
922.240625,0.001430511475
924.19375,0.002861022949
926.146875,-0.01239776611
928.1,-0.0004768371582
930.053125,0.005722045898
932.00625,0.004291534424
933.959375,0.01239776611
935.9125,0.03147125244
937.865625,0.03814697266
939.81875,0.02193450928
941.771875,0.03862380981
943.725,0.06484985352
945.678125,0.06246566772
947.63125,0.0581741333
949.584375,0.06341934204
951.5375,0.04100799561
953.490625,0.02288818359
955.44375,0.07295608521
957.396875,0.1101493835
959.35,0.1287460327
961.303125,0.1997947693
963.25625,0.3085136414
965.209375,0.4501342773
967.1625,0.5769729614
969.115625,0.6637573242
971.06875,0.7033348083
973.021875,0.7061958313
974.975,0.7433891296
976.928125,0.7634162903
978.88125,0.7367134094
980.834375,0.7815361023
982.7875,0.8702278137
984.740625,0.9541511536
986.69375,1.107692719
988.646875,1.311302185
990.6,1.559734344
992.553125,1.852989197
994.50625,2.054214478
996.459375,2.081871033
998.4125,1.916885376
1000.365625,1.656532288
1002.31875,1.43289566
1004.271875,1.107215881
1006.225,0.6203651428
1008.178125,0.1888275146
1010.13125,-0.1029968262
1012.084375,-0.2717971802
1014.0375,-0.3085136414
1015.990625,-0.3333091736
1017.94375,-0.3733634949
1019.896875,-0.2975463867
1021.85,-0.1835823059
1023.803125,-0.1602172852
1025.75625,-0.180721283
1027.709375,-0.2098083496
1029.6625,-0.2236366272
1031.615625,-0.1378059387
1033.56875,0.0376701355
1035.521875,0.2460479736
1037.475,0.4811286926
1039.428125,0.6761550903
1041.38125,0.7829666138
1043.334375,0.8182525635
1045.2875,0.8039474487
1047.240625,0.7481575012
1049.19375,0.6747245789
1051.146875,0.6341934204
1053.1,0.6294250488
1055.053125,0.6175041199
1057.00625,0.554561615
1058.959375,0.4978179932
1060.9125,0.4892349243
1062.865625,0.4787445068
1064.81875,0.467300415
1066.771875,0.4558563232
1068.725,0.4515647888
1070.678125,0.4625320435
1072.63125,0.4630088806
1074.584375,0.4544258118
1076.5375,0.4615783691
1078.490625,0.4835128784
1080.44375,0.4839897156
1082.396875,0.4620552063
1084.35,0.4563331604
1086.303125,0.4816055298
1088.25625,0.4901885986
1090.209375,0.4539489746
1092.1625,0.4458427429
1094.115625,0.4644393921
1096.06875,0.4281997681
1098.021875,0.4024505615
1099.975,0.431060791
1101.928125,0.431060791
1103.88125,0.4291534424
1105.834375,0.4835128784
1107.7875,0.5269050598
1109.740625,0.5102157593
1111.69375,0.4787445068
1113.646875,0.4758834839
1115.6,0.479221344
1117.553125,0.4539489746
1119.50625,0.4377365112
1121.459375,0.4725456238
1123.4125,0.4911422729
1125.365625,0.4911422729
1127.31875,0.5116462708
1129.271875,0.4839897156
1131.225,0.4668235779
1133.178125,0.5097389221
1135.13125,0.5192756653
1137.084375,0.5097389221
1139.0375,0.5087852478
1140.990625,0.5040168762
1142.94375,0.5307197571
1144.896875,0.5550384521
1146.85,0.5421638489
1148.803125,0.5559921265
1150.75625,0.5650520325
1152.709375,0.5521774292
1154.6625,0.563621521
1156.615625,0.5784034729
1158.56875,0.5898475647
1160.521875,0.581741333
1162.475,0.5912780762
1164.428125,0.6532669067
1166.38125,0.6918907166
1168.334375,0.6632804871
1170.2875,0.6318092346
1172.240625,0.6575584412
1174.19375,0.6799697876
1176.146875,0.687122345
1178.1,0.7171630859
1180.053125,0.7367134094
1182.00625,0.7429122925
1183.959375,0.7557868958
1185.9125,0.7700920105
1187.865625,0.8044242859
1189.81875,0.837802887
1191.771875,0.8506774902
1193.725,0.8759498596
1195.678125,0.8797645569
1197.63125,0.8821487427
1199.584375,0.9293556213
1201.5375,0.9827613831
1203.490625,1.024723053
1205.44375,1.041889191
1207.396875,1.070022583
1209.35,1.097202301
1211.303125,1.088142395
1213.25625,1.111984253
1215.209375,1.139163971
1217.1625,1.142501831
1219.115625,1.173019409
1221.06875,1.207828522
1223.021875,1.257419586
1224.975,1.300811768
1226.928125,1.310348511
1228.88125,1.309871674
1230.834375,1.310825348
1232.7875,1.347064972
1234.740625,1.375198364
1236.69375,1.358509064
1238.646875,1.359939575
1240.6,1.38092041
1242.553125,1.38425827
1244.50625,1.391410828
1246.459375,1.404762268
1248.4125,1.398563385
1250.365625,1.396656036
1252.31875,1.400470734
1254.271875,1.385211945
1256.225,1.364707947
1258.178125,1.34563446
1260.13125,1.33228302
1262.084375,1.297473907
1264.0375,1.239299774
1265.990625,1.211166382
1267.94375,1.194000244
1269.896875,1.150131226
1271.85,1.087188721
1273.803125,1.043319702
1275.75625,1.030445099
1277.709375,0.9732246399
1279.6625,0.883102417
1281.615625,0.8316040039
1283.56875,0.8091926575
1285.521875,0.7753372192
1287.475,0.7009506226
1289.428125,0.6213188171
1291.38125,0.5626678467
1293.334375,0.5197525024
1295.2875,0.4806518555
1297.240625,0.424861908
1299.19375,0.367641449
1301.146875,0.3271102905
1303.1,0.2918243408
1305.053125,0.2455711365
1307.00625,0.205039978
1308.959375,0.1769065857
1310.9125,0.1201629639
1312.865625,0.06723403931
1314.81875,0.04816055298
1316.771875,0.03480911255
1318.725,0.02098083496
1320.678625,-0.02241134644
1322.63175,-0.07343292236
1324.584875,-0.07915496826
1326.538,-0.09202957153
1328.491125,-0.1125335693
1330.44425,-0.09870529175
1332.397375,-0.1063346863
1334.3505,-0.1301765442
1336.303625,-0.1368522644
1338.25675,-0.1425743103
1340.209875,-0.1468658447
1342.163,-0.1244544983
1344.116125,-0.09059906006
1346.06925,-0.1130104065
1348.022375,-0.1792907715
1349.9755,-0.2126693726
1351.928625,-0.2164840698
1353.88175,-0.2150535583
1355.834875,-0.2002716064
1357.788,-0.1912117004
1359.741125,-0.1754760742
1361.69425,-0.17786026
1363.647375,-0.1926422119
1365.6005,-0.1692771912
1367.553625,-0.1740455627
1369.50675,-0.1888275146
1371.459875,-0.1654624939
1373.413,-0.1878738403
1375.366125,-0.2264976501
1377.31925,-0.1969337463
1379.272375,-0.1616477966
1381.2255,-0.1573562622
1383.178625,-0.1420974731
1385.13175,-0.1444816589
1387.084875,-0.1535415649
1389.038,-0.1459121704
1390.991125,-0.1444816589
1392.94425,-0.13256073
1394.897375,-0.1244544983
1396.8505,-0.1311302185
1398.803625,-0.1306533813
1400.75675,-0.1211166382
1402.709875,-0.1173019409
1404.663,-0.1201629639
1406.616125,-0.1201629639
1408.56925,-0.1225471497
1410.522375,-0.1192092896
1412.4755,-0.09965896606
1414.428625,-0.07104873657
1416.38175,-0.06818771362
1418.334875,-0.08678436279
1420.288,-0.08296966553
1422.241125,-0.0638961792
1424.19425,-0.06818771362
1426.147375,-0.07486343384
1428.1005,-0.06675720215
1430.053625,-0.075340271
1432.00675,-0.08153915405
1433.959875,-0.06675720215
1435.913,-0.0319480896
1437.866125,-0.004768371582
1439.81925,-0.03910064697
1441.772375,-0.08583068848
1443.7255,-0.09727478027
1445.678625,-0.08487701416
1447.63175,-0.07963180542
1449.584875,-0.09918212891
1451.538,-0.08487701416
1453.491125,-0.05912780762
1455.44425,-0.06723403931
1457.397375,-0.07057189941
1459.3505,-0.07057189941
1461.303625,-0.07677078247
1463.25675,-0.07724761963
1465.209875,-0.05531311035
1467.163,-0.0205039978
1469.116125,-0.01811981201
1471.06925,-0.0205039978
1473.022375,-0.02145767212
1474.9755,-0.03623962402
1476.928625,-0.02956390381
1478.88175,-0.001907348633
1480.834875,-0.01621246338
1482.788,-0.05388259888
1484.741125,-0.04720687866
1486.69425,-0.05006790161
1488.647375,-0.05769729614
1490.6005,-0.04863739014
1492.553625,-0.06580352783
1494.50675,-0.06628036499
1496.459875,-0.05531311035
1498.413,-0.06532669067
1500.366125,-0.06103515625
1502.31925,-0.04959106445
1504.272375,-0.04720687866
1506.2255,-0.04243850708
1508.178625,-0.05388259888
1510.13175,-0.06103515625
1512.084875,-0.03671646118
1514.038,-0.04100799561
1515.991125,-0.05674362183
1517.94425,-0.03862380981
1519.897375,-0.05626678467
1521.8505,-0.08583068848
1523.803625,-0.07057189941
1525.75675,-0.06055831909
1527.709875,-0.07295608521
1529.663,-0.08153915405
1531.616125,-0.08535385132
1533.56925,-0.07057189941
1535.522375,-0.0433921814
1537.4755,-0.04720687866
1539.428625,-0.07200241089
1541.38175,-0.08773803711
1543.334875,-0.075340271
1545.288,-0.05722045898
1547.241125,-0.08153915405
1549.19425,-0.1091957092
1551.147375,-0.1091957092
1553.1005,-0.1015663147
1555.053625,-0.09346008301
1557.00675,-0.08916854858
1558.959875,-0.07581710815
1560.913,-0.0524520874
1562.866125,-0.05674362183
1564.81925,-0.07247924805
1566.772375,-0.05054473877
1568.7255,-0.04291534424
1570.678625,-0.08201599121
1572.63175,-0.08773803711
1574.584875,-0.05578994751
1576.538,-0.04911422729
1578.491125,-0.04863739014
1580.44425,-0.05912780762
1582.397375,-0.07724761963
1584.3505,-0.04434585571
1586.303625,-0.03719329834
1588.25675,-0.075340271
1590.209875,-0.06675720215
1592.163,-0.07247924805
1594.116125,-0.08726119995
1596.06925,-0.06675720215
1598.022375,-0.05578994751
1599.9755,-0.04911422729
1601.928625,-0.07009506226
1603.88175,-0.075340271
1605.834875,-0.05149841309
1607.788,-0.05197525024
1609.741125,-0.04291534424
1611.69425,-0.01859664917
1613.647375,-0.01764297485
1615.6005,-0.04911422729
1617.553625,-0.0786781311
1619.50675,-0.05483627319
1621.459875,-0.02813339233
1623.413,-0.05102157593
1625.366125,-0.05578994751
1627.31925,-0.03385543823
1629.272375,-0.02717971802
1631.2255,-0.01859664917
1633.178625,-0.03004074097
1635.13175,-0.05483627319
1637.084875,-0.06198883057
1639.038,-0.05626678467
1640.991125,-0.05054473877
1642.94425,-0.05149841309
1644.897375,-0.03576278687
1646.8505,-0.02288818359
1648.803625,-0.02574920654
1650.75675,-0.01525878906
1652.709875,-0.03290176392
1654.663,-0.05578994751
1656.616125,-0.04148483276
1658.56925,-0.03623962402
1660.522375,-0.04768371582
1662.4755,-0.05197525024
1664.428625,-0.04100799561
1666.38175,-0.01907348633
1668.334875,-0.02479553223
1670.288,-0.04577636719
1672.241125,-0.02479553223
1674.19425,-0.006198883057
1676.147375,-0.02670288086
1678.1005,-0.02574920654
1680.053625,-0.01096725464
1682.00675,-0.02956390381
1683.959875,-0.03385543823
1685.913,-0.01239776611
1687.866125,-0.007152557373
1689.81925,-0.004291534424
1691.772375,0.0004768371582
1693.7255,-0.0004768371582
1695.678625,-0.01335144043
1697.63175,-0.03623962402
1699.584875,-0.04291534424
1701.538,-0.007152557373
1703.491125,0.006675720215
1705.44425,-0.03147125244
1707.397375,-0.03910064697
1709.3505,-0.001430511475
1711.303625,0.01907348633
1713.25675,0.02002716064
1715.209875,0.03385543823
1717.163,0.01430511475
1719.116125,-0.01811981201
1721.06925,-0.01192092896
1723.022375,-0.005722045898
1724.9755,0.0004768371582
1726.928625,0.005722045898
1728.88175,-0.003337860107
1730.834875,-0.005722045898
1732.788,0.003814697266
1734.741125,0.02145767212
1736.69425,0.04529953003
1738.647375,0.03337860107
1740.6005,0.01192092896
1742.553625,0.0467300415
1744.50675,0.06246566772
1746.459875,0.04148483276
1748.413,0.05435943604
1750.366125,0.06103515625
1752.31925,0.05626678467
1754.272375,0.0581741333
1756.2255,0.03290176392
1758.178625,-0.001907348633
1760.13175,0.01335144043
1762.084875,0.03480911255
1764.038,0.03385543823
1765.991125,0.04148483276
1767.94425,0.02527236938
1769.897375,0.02527236938
1771.8505,0.05578994751
1773.803625,0.0524520874
1775.75675,0.03528594971
1777.709875,0.03480911255
1779.663,0.04816055298
1781.616125,0.04482269287
1783.56925,0.0262260437
1785.522375,0.03862380981
1787.4755,0.0467300415
1789.428625,0.04053115845
1791.38175,0.05197525024
1793.334875,0.06484985352
1795.288,0.07343292236
1797.241125,0.06198883057
1799.19425,0.05292892456
1801.147375,0.07247924805
1803.1005,0.06866455078
1805.053625,0.05578994751
1807.00675,0.06675720215
1808.959875,0.08153915405
1810.913,0.07820129395
1812.866125,0.05197525024
1814.81925,0.05006790161
1816.772375,0.07343292236
1818.7255,0.07915496826
1820.678625,0.07390975952
1822.63175,0.06866455078
1824.584875,0.06914138794
1826.538,0.1044273376
1828.491125,0.1397132874
1830.44425,0.1163482666
1832.397375,0.08630752563
1834.3505,0.08630752563
1836.303625,0.08249282837
1838.25675,0.1015663147
1840.209875,0.1835823059
1842.163,0.2689361572
1844.116125,0.2975463867
1846.06925,0.3185272217
1848.022375,0.3719329834
1849.9755,0.3838539124
1851.928625,0.3523826599
1853.88175,0.3623962402
1855.834875,0.3747940063
1857.788,0.3743171692
1859.741125,0.3881454468
1861.69425,0.3805160522
1863.647375,0.3595352173
1865.6005,0.349521637
1867.553625,0.346660614
1869.50675,0.3590583801
1871.459875,0.3819465637
1873.413,0.3757476807
1875.366125,0.3318786621
1877.31925,0.2980232239
1879.272375,0.2474784851
1881.2255,0.180721283
1883.178625,0.1678466797
1885.13175,0.1711845398
1887.084875,0.1602172852
1889.038,0.1811981201
1890.991125,0.1916885376
1892.94425,0.1459121704
1894.897375,0.1063346863
1896.8505,0.08106231689
1898.803625,0.03433227539
1900.75675,-0.009059906006
1902.709875,-0.01573562622
1904.663,0.001430511475
1906.616125,-0.01001358032
1908.56925,0.01621246338
1910.522375,0.05674362183
1912.4755,0.02193450928
1914.428625,0.03051757813
1916.38175,0.07677078247
1918.334875,0.0638961792
1920.288,0.01382827759
1922.241125,-0.02336502075
1924.19425,-0.0171661377
1926.147375,-0.009059906006
1928.1005,-0.0171661377
1930.053625,-0.02241134644
1932.00675,-0.02574920654
1933.959875,-0.009059906006
1935.913,0.003814697266
1937.866125,-0.01668930054
1939.81925,-0.04148483276
1941.772375,-0.04768371582
1943.7255,-0.05769729614
1945.678625,-0.05531311035
1947.63175,-0.06103515625
1949.584875,-0.08869171143
1951.538,-0.09298324585
1953.491125,-0.06484985352
1955.44425,-0.03480911255
1957.397375,-0.03576278687
1959.3505,-0.03004074097
1961.303625,-0.01001358032
1963.25675,-0.02002716064
1965.209875,-0.01811981201
1967.163,0.01001358032
1969.116125,0.007629394531
1971.06925,-0.006675720215
1973.022375,0.01335144043
1974.9755,0.05340576172
1976.928625,0.08106231689
1978.88175,0.1354217529
1980.834875,0.2694129944
1982.788,0.4167556763
1984.741125,0.5087852478
1986.69425,0.5946159363
1988.647375,0.6890296936
1990.6005,0.6866455078
1992.553625,0.6775856018
1994.50675,0.7514953613
1996.459875,0.732421875
1998.413,0.6914138794
2000.366125,0.7758140564
2002.31925,0.8463859558
2004.272375,0.9274482727
2006.2255,1.064300537
2008.178625,1.254558563
2010.13175,1.573085785
2012.084875,1.829147339
2014.038,1.930236816
2015.991125,1.904964447
2017.94425,1.67798996
2019.897375,1.440525055
2021.8505,1.208305359
2023.803625,0.7429122925
2025.75675,0.2207756042
2027.709875,-0.1020431519
2029.663,-0.2880096436
2031.616125,-0.3910064697
2033.56925,-0.4224777222
2035.522375,-0.4620552063
2037.4755,-0.4630088806
2039.428625,-0.3552436829
2041.38175,-0.2870559692
2043.334875,-0.3085136414
2045.288,-0.3252029419
2047.241125,-0.3299713135
2049.19425,-0.3132820129
2051.147375,-0.2136230469
2053.1005,0.008583068848
2055.053625,0.2689361572
2057.00675,0.4658699036
2058.959875,0.6098747253
2060.913,0.7014274597
2062.866125,0.7328987122
2064.81925,0.7128715515
2066.772375,0.6399154663
2068.7255,0.5717277527
2070.678625,0.5555152893
2072.63175,0.5512237549
2074.584875,0.5345344543
2076.538,0.5011558533
2078.491125,0.4711151123
2080.44425,0.4916191101
2082.397375,0.500202179
2084.3505,0.4663467407
2086.303625,0.452041626
2088.25675,0.4477500916
2090.209875,0.4620552063
2092.163,0.4844665527
2094.116125,0.4935264587
2096.06925,0.4782676697
2098.022375,0.4420280457
2099.9755,0.4315376282
2101.928625,0.4510879517
2103.88175,0.4625320435
2105.834875,0.4425048828
2107.788,0.4405975342
2109.741125,0.4544258118
2111.69425,0.4515647888
2113.647375,0.4549026489
2115.6005,0.4558563232
2117.553625,0.4553794861
2119.50675,0.4644393921
2121.459875,0.4734992981
2123.413,0.4596710205
2125.366125,0.4496574402
2127.31925,0.479221344
2129.272375,0.4663467407
2131.2255,0.449180603
2133.178625,0.4801750183
2135.13175,0.4687309265
2137.084875,0.4682540894
2139.038,0.5021095276
2140.991125,0.4935264587
2142.94425,0.4873275757
2144.897375,0.4959106445
2146.8505,0.4954338074
2148.803625,0.5011558533
2150.75675,0.4868507385
2152.709875,0.4768371582
2154.663,0.5111694336
2156.616125,0.5240440369
2158.56925,0.5130767822
2160.522375,0.5140304565
2162.4755,0.509262085
2164.428625,0.5350112915
2166.38175,0.5669593811
2168.334875,0.5555152893
2170.288,0.5483627319
2172.241125,0.5574226379
2174.19425,0.5683898926
2176.147375,0.5922317505
2178.1005,0.6399154663
2180.053625,0.6322860718
2182.00675,0.584602356
2183.959875,0.5950927734
2185.913,0.6070137024
2187.866125,0.6055831909
2189.81925,0.6132125854
2191.772375,0.6155967712
2193.7255,0.6670951843
2195.678625,0.7348060608
2197.63175,0.7386207581
2199.584875,0.7224082947
2201.538,0.7262229919
2203.491125,0.7419586182
2205.44425,0.7843971252
2207.397375,0.8101463318
2209.3505,0.8234977722
2211.303625,0.8773803711
2213.25675,0.8859634399
2215.209875,0.8721351624
2217.163,0.937461853
2219.116125,0.9984970093
2221.06925,1.009464264
2223.022375,1.032829285
2224.9755,1.05381012
2226.928625,1.046657562
2228.88175,1.052856445
2230.834875,1.096248627
2232.788,1.136302948
2234.741125,1.158237457
2236.69425,1.183509827
2238.647375,1.196861267
2240.6005,1.205921173
2242.553625,1.240253448
2244.50675,1.294612885
2246.459875,1.324653625
2248.413,1.3256073
2250.366125,1.349925995
2252.31925,1.373767853
2254.272375,1.372337341
2256.2255,1.37424469
2258.178625,1.379489899
2260.13175,1.402378082
2262.084875,1.405715942
2264.038,1.379013062
2265.991125,1.395702362
2267.94425,1.430034637
2269.897375,1.422405243
2271.8505,1.391887665
2273.803625,1.383781433
2275.75675,1.376152039
2277.709875,1.337528229
2279.663,1.3256073
2281.616125,1.324653625
2283.56925,1.303195953
2285.522375,1.28698349
2287.4755,1.247406006
2289.428625,1.20973587
2291.38175,1.168251038
2293.334875,1.097202301
2295.288,1.056671143
2297.241125,1.018047333
2299.19425,0.9517669678
2301.147375,0.8945465088
2303.1005,0.8311271667
2305.053625,0.7672309875
2307.00675,0.7100105286
2308.959875,0.659942627
2310.913,0.62084198
2312.866125,0.5674362183
2314.81925,0.5073547363
2316.772375,0.4510879517
2318.7255,0.4076957703
2320.678625,0.3604888916
2322.63175,0.3023147583
2324.584875,0.2636909485
2326.538,0.2222061157
2328.491125,0.1854896545
2330.44425,0.1816749573
2332.397375,0.1497268677
2334.3505,0.08487701416
2336.303625,0.05435943604
2338.25675,0.04482269287
2340.209875,0.006675720215
2342.163,-0.0376701355
2344.116125,-0.04482269287
2346.06925,-0.0581741333
2348.022375,-0.1039505005
2349.9755,-0.1306533813
2351.928625,-0.1330375671
2353.88175,-0.1378059387
2355.834875,-0.1392364502
2357.788,-0.1430511475
2359.741125,-0.1530647278
2361.69425,-0.1654624939
2363.647375,-0.1711845398
2365.6005,-0.1611709595
2367.553625,-0.1749992371
2369.50675,-0.2002716064
2371.459875,-0.1907348633
2373.413,-0.1845359802
2375.366125,-0.1811981201
2377.31925,-0.186920166
2379.272375,-0.2002716064
2381.2255,-0.1912117004
2383.178625,-0.1788139343
2385.13175,-0.1831054688
2387.084875,-0.1821517944
2389.038,-0.1635551453
2390.991125,-0.1826286316
2392.94425,-0.2093315125
2394.897375,-0.1854896545
2396.8505,-0.1864433289
2398.803625,-0.2198219299
2400.75675,-0.198841095
2402.709875,-0.1769065857
2404.663,-0.1969337463
2406.616125,-0.1840591431
2408.56925,-0.1525878906
2410.522375,-0.1626014709
2412.4755,-0.1783370972
2414.428625,-0.1606941223
2416.38175,-0.1482963562
2418.334875,-0.1487731934
2420.288,-0.1397132874
2422.241125,-0.138759613
2424.19425,-0.111579895
2426.147375,-0.08583068848
2428.1005,-0.1149177551
2430.053625,-0.1173019409
2432.00675,-0.08249282837
2433.959875,-0.08964538574
2435.913,-0.09250640869
2437.866125,-0.05435943604
2439.81925,-0.03433227539
2441.772375,-0.05054473877
2443.7255,-0.08058547974
2445.678625,-0.08726119995
2447.63175,-0.08392333984
2449.584875,-0.08106231689
2451.538,-0.06818771362
2453.491125,-0.07200241089
2455.44425,-0.07104873657
2457.397375,-0.07295608521
2459.3505,-0.08535385132
2461.303625,-0.08344650269
2463.25675,-0.09441375732
2465.209875,-0.08201599121
2467.163,-0.05674362183
2469.116125,-0.06675720215
2471.06925,-0.06914138794
2473.022375,-0.06055831909
2474.9755,-0.04959106445
2476.928625,-0.03576278687
2478.88175,-0.04577636719
2480.834875,-0.04911422729
2482.788,-0.03671646118
2484.741125,-0.03480911255
2486.69425,-0.03242492676
2488.647375,-0.04243850708
2490.6005,-0.06294250488
2492.553625,-0.04720687866
2494.50675,-0.03099441528
2496.459875,-0.05865097046
2498.413,-0.07629394531
2500.366125,-0.06294250488
2502.31925,-0.08153915405
2504.272375,-0.1010894775
2506.2255,-0.08916854858
2508.178625,-0.09155273438
2510.13175,-0.07820129395
2512.084875,-0.06771087646
2514.038,-0.07724761963
2515.991125,-0.07104873657
2517.94425,-0.08296966553
2519.897375,-0.07724761963
2521.8505,-0.06246566772
2523.803625,-0.08726119995
2525.75675,-0.08344650269
2527.709875,-0.04911422729
2529.663,-0.05149841309
2531.616125,-0.084400177
2533.56925,-0.09679794312
2535.522375,-0.08964538574
2537.4755,-0.09489059448
2539.428625,-0.09822845459
2541.38175,-0.09918212891
2543.334875,-0.1130104065
2545.288,-0.1106262207
2547.241125,-0.09298324585
2549.19425,-0.09202957153
2551.147375,-0.1072883606
2553.1005,-0.1134872437
2555.053625,-0.1049041748
2557.00675,-0.09822845459
2558.959875,-0.09775161743
2560.913,-0.09965896606
2562.866125,-0.084400177
2564.81925,-0.06914138794
2566.772375,-0.084400177
2568.7255,-0.09536743164
2570.678625,-0.0958442688
2572.63175,-0.1082420349
2574.584875,-0.1044273376
2576.538,-0.09393692017
2578.491125,-0.0901222229
2580.44425,-0.1087188721
2582.397375,-0.1382827759
2584.3505,-0.1087188721
2586.303625,-0.08344650269
2588.25675,-0.09965896606
2590.209875,-0.08773803711
2592.163,-0.08678436279
2594.116125,-0.09536743164
2596.06925,-0.07629394531
2598.022375,-0.06103515625
2599.9755,-0.05388259888
2601.928625,-0.06675720215
2603.88175,-0.08964538574
2605.834875,-0.08058547974
2607.788,-0.07772445679
2609.741125,-0.08153915405
2611.69425,-0.07057189941
2613.647375,-0.06103515625
2615.6005,-0.04816055298
2617.553625,-0.07772445679
2619.50675,-0.09393692017
2621.459875,-0.03957748413
2623.413,-0.0205039978
2625.366125,-0.05674362183
2627.31925,-0.08058547974
2629.272375,-0.07486343384
2631.2255,-0.06866455078
2633.178625,-0.08344650269
2635.13175,-0.07295608521
2637.084875,-0.06914138794
2639.038,-0.07724761963
2640.991475,-0.04291534424
2642.944418,-0.01621246338
2644.897361,-0.02956390381
2646.850304,-0.08058547974
2648.803247,-0.09298324585
2650.75619,-0.06341934204
2652.709133,-0.08678436279
2654.662076,-0.09632110596
2656.615019,-0.08153915405
2658.567962,-0.0786781311
2660.520905,-0.04291534424
2662.473848,-0.02956390381
2664.426791,-0.04720687866
2666.379734,-0.04529953003
2668.332677,-0.04625320435
2670.28562,-0.03147125244
2672.238563,-0.01287460327
2674.191506,-0.04482269287
2676.144449,-0.06484985352
2678.097392,-0.03528594971
2680.050335,-0.006198883057
2682.003278,-0.002861022949
2683.956221,-0.04243850708
2685.909164,-0.07247924805
2687.862107,-0.05102157593
2689.81505,-0.03576278687
2691.767993,-0.03528594971
2693.720936,-0.02479553223
2695.673879,-0.01192092896
2697.626822,-0.01811981201
2699.579765,-0.04816055298
2701.532708,-0.04816055298
2703.485651,-0.03862380981
2705.438594,-0.05531311035
2707.391537,-0.04100799561
2709.34448,-0.02956390381
2711.297423,-0.05006790161
2713.250366,-0.03051757813
2715.203309,-0.007629394531
2717.156252,-0.04100799561
2719.109195,-0.05722045898
2721.062138,-0.02765655518
2723.015081,-0.02145767212
2724.968024,-0.02717971802
2726.920967,-0.008106231689
2728.87391,-0.00524520874
2730.826853,-0.006198883057
2732.779796,0.01764297485
2734.732739,0.01907348633
2736.685682,-0.006198883057
2738.638625,0.0147819519
2740.591568,0.04482269287
2742.544511,0.01430511475
2744.497454,-0.003337860107
2746.450397,0.008106231689
2748.40334,0.0009536743164
2750.356283,-0.00524520874
2752.309226,-0.0114440918
2754.262169,-0.01811981201
2756.215112,0.009059906006
2758.168055,0.03433227539
2760.120998,0.04768371582
2762.073941,0.04434585571
2764.026884,0.01621246338
2765.979827,0.02717971802
2767.93277,0.05102157593
2769.885713,0.01287460327
2771.838656,-0.01764297485
2773.791599,-0.01287460327
2775.744542,0
2777.697485,0.02002716064
2779.650428,0.03576278687
2781.603371,0.04100799561
2783.556314,0.03099441528
2785.509257,0.03814697266
2787.4622,0.06675720215
2789.415143,0.06866455078
2791.368086,0.07104873657
2793.321029,0.08058547974
2795.273972,0.0581741333
2797.226915,0.04148483276
2799.179858,0.06723403931
2801.132801,0.09441375732
2803.085744,0.07057189941
2805.038687,0.04863739014
2806.99163,0.05388259888
2808.944573,0.01764297485
2810.897516,0.01764297485
2812.850459,0.06246566772
2814.803402,0.03528594971
2816.756345,0.008106231689
2818.709288,0.04482269287
2820.662231,0.06580352783
2822.615174,0.05197525024
2824.568117,0.0581741333
2826.52106,0.08296966553
2828.474003,0.08869171143
2830.426946,0.084400177
2832.379889,0.08678436279
2834.332832,0.08821487427
2836.285775,0.06532669067
2838.238718,0.09918212891
2840.191661,0.1592636108
2842.144604,0.1320838928
2844.097547,0.1096725464
2846.05049,0.123500824
2848.003433,0.114440918
2849.956376,0.1287460327
2851.909319,0.1969337463
2853.862262,0.2851486206
2855.815205,0.3447532654
2857.768148,0.3824234009
2859.721091,0.3895759583
2861.674034,0.3547668457
2863.626977,0.3614425659
2865.57992,0.4048347473
2867.532863,0.3848075867
2869.485806,0.3614425659
2871.438749,0.3981590271
2873.391692,0.3895759583
2875.344635,0.3523826599
2877.297578,0.3871917725
2879.250521,0.4096031189
2881.203464,0.3819465637
2883.156407,0.3771781921
2885.10935,0.3595352173
2887.062293,0.3132820129
2889.015236,0.2694129944
2890.968179,0.2055168152
2892.921122,0.1521110535
2894.874065,0.1525878906
2896.827008,0.1678466797
2898.779951,0.1721382141
2900.732894,0.1449584961
2902.685837,0.07343292236
2904.63878,0.02384185791
2906.591723,0.004768371582
2908.544666,-0.00524520874
2910.497609,0.008106231689
2912.450552,0.002861022949
2914.403495,-0.0147819519
2916.356438,-0.02431869507
2918.309381,-0.03051757813
2920.262324,-0.003814697266
2922.215267,0.02336502075
2924.16821,0.0171661377
2926.121153,0.01859664917
2928.074096,0.01287460327
2930.027039,-0.02479553223
2931.979982,-0.04720687866
2933.932925,-0.0376701355
2935.885868,-0.04243850708
2937.838811,-0.05769729614
2939.791754,-0.07152557373
2941.744697,-0.09632110596
2943.69764,-0.08678436279
2945.650583,-0.05722045898
2947.603526,-0.06675720215
2949.556469,-0.07724761963
2951.509412,-0.06484985352
2953.462355,-0.06723403931
2955.415298,-0.08726119995
2957.368241,-0.07820129395
2959.321184,-0.05626678467
2961.274127,-0.06818771362
2963.22707,-0.08296966553
2965.180013,-0.0638961792
2967.132956,-0.02813339233
2969.085899,-0.01525878906
2971.038842,-0.03099441528
2972.991785,-0.03337860107
2974.944728,-0.02861022949
2976.897671,-0.03910064697
2978.850614,-0.03528594971
2980.803557,-0.01621246338
2982.7565,0.00524520874
2984.709443,0.03862380981
2986.662386,0.08535385132
2988.615329,0.1487731934
2990.568272,0.2479553223
2992.521215,0.3848075867
2994.474158,0.5049705505
2996.427101,0.590801239
2998.380044,0.6647109985
3000.332987,0.678062439
3002.28593,0.6918907166
3004.238873,0.7109642029
3006.191816,0.6427764893
3008.144759,0.6375312805
3010.097702,0.7290840149
3012.050645,0.8182525635
3014.003588,0.9570121765
3015.956531,1.063346863
3017.909474,1.205921173
3019.862417,1.528263092
3021.81536,1.766681671
3023.768303,1.81055069
3025.721246,1.749992371
3027.674189,1.584529877
3029.627132,1.394271851
3031.580075,1.099586487
3033.533018,0.6046295166
3035.485961,0.1673698425
3037.438904,-0.05531311035
3039.391847,-0.2031326294
3041.34479,-0.3223419189
3043.297733,-0.3833770752
3045.250676,-0.422000885
3047.203619,-0.4024505615
3049.156562,-0.3247261047
3051.109505,-0.31042099
3053.062448,-0.3457069397
3055.015391,-0.3781318665
3056.968334,-0.4487037659
3058.921277,-0.4606246948
3060.87422,-0.3414154053
3062.827163,-0.180721283
3064.780106,0.01096725464
3066.733049,0.2346038818
3068.685992,0.4014968872
3070.638935,0.5140304565
3072.591878,0.5941390991
3074.544821,0.6003379822
3076.497764,0.5469322205
3078.450707,0.4935264587
3080.40365,0.4935264587
3082.356593,0.5388259888
3084.309536,0.5526542664
3086.262479,0.5249977112
3088.215422,0.4959106445
3090.168365,0.4720687866
3092.121308,0.4425048828
3094.074251,0.452041626
3096.027194,0.4820823669
3097.980137,0.4634857178
3099.93308,0.4453659058
3101.886023,0.4320144653
3103.838966,0.4172325134
3105.791909,0.4487037659
3107.744852,0.4682540894
3109.697795,0.4625320435
3111.650738,0.4816055298
3113.603681,0.4906654358
3115.556624,0.4901885986
3117.509567,0.4835128784
3119.46251,0.4644393921
3121.415453,0.4682540894
3123.368396,0.4978179932
3125.321339,0.4935264587
3127.274282,0.4739761353
3129.227225,0.5140304565
3131.180168,0.5331039429
3133.133111,0.4968643188
3135.086054,0.5054473877
3137.038997,0.5393028259
3138.99194,0.551700592
3140.944883,0.5536079407
3142.897826,0.5373954773
3144.850769,0.5378723145
3146.803712,0.5598068237
3148.756655,0.5593299866
3150.709598,0.5564689636
3152.662541,0.5555152893
3154.615484,0.5502700806
3156.568427,0.5445480347
3158.52137,0.5459785461
3160.474313,0.563621521
3162.427256,0.5645751953
3164.380199,0.5526542664
3166.333142,0.554561615
3168.286085,0.5745887756
3170.239028,0.5836486816
3172.191971,0.5826950073
3174.144914,0.6103515625
3176.097857,0.6194114685
3178.0508,0.599861145
3180.003743,0.6065368652
3181.956686,0.6122589111
3183.909629,0.6065368652
3185.862572,0.6308555603
3187.815515,0.6604194641
3189.768458,0.6394386292
3191.721401,0.6341934204
3193.674344,0.6713867188
3195.627287,0.6732940674
3197.58023,0.6542205811
3199.533173,0.6732940674
3201.486116,0.71144104
3203.439059,0.7109642029
3205.392002,0.7047653198
3207.344945,0.7238388062
3209.297888,0.7452964783
3211.250831,0.8025169373
3213.203774,0.8478164673
3215.156717,0.8244514465
3217.10966,0.8034706116
3219.062603,0.8182525635
3221.015546,0.8411407471
3222.968489,0.8773803711
3224.921432,0.9145736694
3226.874375,0.9140968323
3228.827318,0.9417533875
3230.780261,0.994682312
3232.733204,0.9908676147
3234.686147,0.9875297546
3236.63909,1.019001007
3238.592033,1.051902771
3240.544976,1.096248627
3242.497919,1.137256622
3244.450862,1.145839691
3246.403805,1.155376434
3248.356748,1.184940338
3250.309691,1.210689545
3252.262634,1.243114471
3254.215577,1.275539398
3256.16852,1.272201538
3258.121463,1.27363205
3260.074406,1.313686371
3262.027349,1.340866089
3263.980292,1.345157623
3265.933235,1.350402832
3267.886178,1.356601715
3269.839121,1.373767853
3271.792064,1.382827759
3273.745007,1.363754272
3275.69795,1.38092041
3277.650893,1.439571381
3279.603836,1.420974731
3281.556779,1.358032227
3283.509722,1.319885254
3285.462665,1.276016235
3287.415608,1.286506653
3289.368551,1.323699951
3291.321494,1.27363205
3293.274437,1.218795776
3295.22738,1.208305359
3297.180323,1.181602478
3299.133266,1.161575317
3301.086209,1.120090485
3303.039152,1.070976257
3304.992095,1.071929932
3306.945038,1.012802124
3308.897981,0.9179115295
3310.850924,0.9026527405
3312.803867,0.8726119995
3314.75681,0.8044242859
3316.709753,0.7753372192
3318.662696,0.7061958313
3320.615639,0.6332397461
3322.568582,0.6318092346
3324.521525,0.5869865417
3326.474468,0.5159378052
3328.427411,0.4782676697
3330.380354,0.422000885
3332.333297,0.3581047058
3334.28624,0.3204345703
3336.239183,0.2942085266
3338.192126,0.2632141113
3340.145069,0.2288818359
3342.098012,0.1907348633
3344.050955,0.1482963562
3346.003898,0.1139640808
3347.956841,0.0901222229
3349.909784,0.084400177
3351.862727,0.03528594971
3353.81567,-0.01859664917
3355.768613,-0.002384185791
3357.721556,-0.0147819519
3359.674499,-0.0467300415
3361.627442,-0.03719329834
3363.580385,-0.03862380981
3365.533328,-0.05960464478
3367.486271,-0.06055831909
3369.439214,-0.05960464478
3371.392157,-0.08344650269
3373.3451,-0.08630752563
3375.298043,-0.07152557373
3377.250986,-0.06914138794
3379.203929,-0.06866455078
3381.156872,-0.09155273438
3383.109815,-0.1330375671
3385.062758,-0.1468658447
3387.015701,-0.1468658447
3388.968644,-0.1516342163
3390.921587,-0.1516342163
3392.87453,-0.147819519
3394.827473,-0.1435279846
3396.780416,-0.1373291016
3398.733359,-0.1330375671
3400.686302,-0.1306533813
3402.639245,-0.123500824
3404.592188,-0.1158714294
3406.545131,-0.1039505005
3408.498074,-0.09393692017
3410.451017,-0.08726119995
3412.40396,-0.06437301636
3414.356903,-0.07104873657
3416.309846,-0.09822845459
3418.262789,-0.09250640869
3420.215732,-0.08916854858
3422.168675,-0.09441375732
3424.121618,-0.08678436279
3426.074561,-0.06437301636
3428.027504,-0.03862380981
3429.980447,-0.03957748413
3431.93339,-0.06437301636
3433.886333,-0.05388259888
3435.839276,-0.03433227539
3437.792219,-0.04386901855
3439.745162,-0.04291534424
3441.698105,-0.02193450928
3443.651048,0.004768371582
3445.603991,0.01811981201
3447.556934,0.01907348633
3449.509877,0.0147819519
3451.46282,0.001430511475
3453.415763,-0.001907348633
3455.368706,-0.01430511475
3457.321649,-0.04482269287
3459.274592,-0.02384185791
3461.227535,0.01192092896
3463.180478,-0.01049041748
3465.133421,-0.02479553223
3467.086364,0.002384185791
3469.039307,-0.006198883057
3470.99225,-0.03337860107
3472.945193,-0.02288818359
3474.898136,-0.01525878906
3476.851079,0.01335144043
3478.804022,0.04816055298
3480.756965,0.0319480896
3482.709908,0.03290176392
3484.662851,0.04291534424
3486.615794,0.03814697266
3488.568737,0.05292892456
3490.52168,0.07390975952
3492.474623,0.06723403931
3494.427566,0.0467300415
3496.380509,0.05149841309
3498.333452,0.05722045898
3500.286395,0.05960464478
3502.239338,0.04434585571
3504.192281,0.02908706665
3506.145224,0.03862380981
3508.098167,0.02431869507
3510.05111,0.02288818359
3512.004053,0.03051757813
3513.956996,0.02479553223
3515.909939,0.01335144043
3517.862882,-0.006198883057
3519.815825,0.02813339233
3521.768768,0.04959106445
3523.721711,0.003337860107
3525.674654,-0.007629394531
3527.627597,0.0467300415
3529.58054,0.0696182251
3531.533483,0.03719329834
3533.486426,0.00524520874
3535.439369,-0.02908706665
3537.392312,-0.0376701355
3539.345255,-0.01811981201
3541.298198,-0.02670288086
3543.251141,-0.04053115845
3545.204084,-0.02765655518
3547.157027,-0.01525878906
3549.10997,-0.003814697266
3551.062913,0.001430511475
3553.015856,-0.01382827759
3554.968799,-0.03004074097
3556.921742,-0.02098083496
3558.874685,-0.02813339233
3560.827628,-0.06151199341
3562.780571,-0.04625320435
3564.733514,-0.03385543823
3566.686457,-0.04625320435
3568.6394,-0.008583068848
3570.592343,0.0171661377
3572.545286,-0.006198883057
3574.498229,-0.04863739014
3576.451172,-0.05722045898
3578.404115,-0.03480911255
3580.357058,-0.0376701355
3582.310001,-0.03290176392
3584.262944,-0.02717971802
3586.215887,-0.03957748413
3588.16883,-0.04100799561
3590.121773,-0.04625320435
3592.074716,-0.05102157593
3594.027659,-0.02479553223
3595.980602,-0.01621246338
3597.933545,-0.02527236938
3599.886488,0.007152557373
3601.839431,0.0262260437
3603.792374,0.0147819519
3605.745317,0.00524520874
3607.69826,-0.01096725464
3609.651203,-0.001430511475
3611.604146,0.01859664917
3613.557089,0.02193450928
3615.510032,0.02431869507
3617.462975,0.0147819519
3619.415918,0.007152557373
3621.368861,0.006198883057
3623.321804,-0.01764297485
3625.274747,-0.04386901855
3627.22769,-0.03242492676
3629.180633,-0.04720687866
3631.133576,-0.08869171143
3633.086519,-0.05960464478
3635.039462,-0.02336502075
3636.992405,0.006198883057
3638.945348,0.04577636719
3640.898291,0.03099441528
3642.851234,0.008583068848
3644.804177,-0.01287460327
3646.75712,-0.0262260437
3648.710063,-0.01335144043
3650.663006,-0.01001358032
3652.615949,0.01335144043
3654.568892,0.02765655518
3656.521835,0.004768371582
3658.474778,-0.001430511475
3660.427721,0.003814697266
3662.380664,-0.01049041748
3664.333607,-0.01096725464
3666.28655,0.01955032349
3668.239493,0.02241134644
3670.192436,0.01430511475
3672.145379,0.04529953003
3674.098322,0.04720687866
3676.051265,0.01907348633
3678.004208,0.02861022949
3679.957151,0.04053115845
3681.910094,0.03719329834
3683.863037,0.04768371582
3685.81598,0.05102157593
3687.768923,0.01668930054
3689.721866,-0.01287460327
3691.674809,0.01049041748
3693.627752,0.04386901855
3695.580695,0.05340576172
3697.533638,0.06628036499
3699.486581,0.07200241089
3701.439524,0.0376701355
3703.392467,0.006675720215
3705.34541,0.01811981201
3707.298353,0.04386901855
3709.251296,0.05865097046
3711.204239,0.09965896606
3713.157182,0.1220703125
3715.110125,0.07390975952
3717.063068,0.07772445679
3719.016011,0.1187324524
3720.968954,0.09918212891
3722.921897,0.07343292236
3724.87484,0.06341934204
3726.827783,0.08869171143
3728.780726,0.1149177551
3730.733669,0.08249282837
3732.686612,0.06151199341
3734.639555,0.06103515625
3736.592498,0.0581741333
3738.545441,0.07677078247
3740.498384,0.1106262207
3742.451327,0.1444816589
3744.40427,0.1544952393
3746.357213,0.1373291016
3748.310156,0.1211166382
3750.263099,0.1091957092
3752.216042,0.1106262207
3754.168985,0.1311302185
3756.121928,0.1277923584
3758.074871,0.123500824
3760.027814,0.1492500305
3761.980757,0.1444816589
3763.9337,0.1358985901
3765.886643,0.1354217529
3767.839586,0.1044273376
3769.792529,0.08678436279
3771.745472,0.1134872437
3773.698415,0.1549720764
3775.651358,0.1626014709
3777.604301,0.1354217529
3779.557244,0.1158714294
3781.510187,0.111579895
3783.46313,0.129699707
3785.416073,0.1316070557
3787.369016,0.1072883606
3789.321959,0.1354217529
3791.274902,0.1606941223
3793.227845,0.1287460327
3795.180788,0.1316070557
3797.133731,0.1540184021
3799.086674,0.1616477966
3801.039617,0.150680542
3802.99256,0.1120567322
3804.945503,0.08726119995
3806.898446,0.09393692017
3808.851389,0.1139640808
3810.804332,0.1268386841
3812.757275,0.1378059387
3814.710218,0.1440048218
3816.663161,0.150680542
3818.616104,0.1611709595
3820.569047,0.150680542
3822.52199,0.147819519
3824.474933,0.147819519
3826.427876,0.1473426819
3828.380819,0.1616477966
3830.333762,0.1516342163
3832.286705,0.1544952393
3834.239648,0.1754760742
3836.192591,0.1645088196
3838.145534,0.1578330994
3840.098477,0.1468658447
3842.05142,0.1196861267
3844.004363,0.1244544983
3845.957306,0.1401901245
3847.910249,0.1258850098
3849.863192,0.1082420349
3851.816135,0.1101493835
3853.769078,0.1139640808
3855.722021,0.1125335693
3857.674964,0.1125335693
3859.627907,0.1316070557
3861.58085,0.1821517944
3863.533793,0.2202987671
3865.486736,0.195980072
3867.439679,0.150680542
3869.392622,0.1382827759
3871.345565,0.1444816589
3873.298508,0.1602172852
3875.251451,0.2017021179
3877.204394,0.2694129944
3879.157337,0.3385543823
3881.11028,0.4100799561
3883.063223,0.4720687866
3885.016166,0.4363059998
3886.969109,0.3533363342
3888.922052,0.3318786621
3890.874995,0.3328323364
3892.827938,0.3523826599
3894.780881,0.3914833069
3896.733824,0.3967285156
3898.686767,0.3890991211
3900.63971,0.3991127014
3902.592653,0.4105567932
3904.545596,0.4057884216
3906.498539,0.424861908
3908.451482,0.4711151123
3910.404425,0.4754066467
3912.357368,0.4229545593
3914.310311,0.3590583801
3916.263254,0.3037452698
3918.216197,0.2512931824
3920.16914,0.2388954163
3922.122083,0.2522468567
3924.075026,0.2226829529
3926.027969,0.1788139343
3927.980912,0.1583099365
3929.933855,0.1420974731
3931.886798,0.1196861267
3933.839741,0.08392333984
3935.792684,0.03576278687
3937.745627,0.02145767212
3939.69857,0.03814697266
3941.651513,0.04005432129
3943.604456,0.04005432129
3945.557399,0.003814697266
3947.510342,-0.03719329834
3949.463285,0.008583068848
3951.416228,0.03290176392
3953.369171,-0.02670288086
3955.322114,-0.04816055298
3957.275057,-0.02145767212
3959.228,-0.01668930054
3961.181625,0.02241134644
3963.13475,0.06866455078
3965.087875,0.01525878906
3967.041,-0.04577636719
3968.994125,-0.02861022949
3970.94725,0.007629394531
3972.900375,0.02002716064
3974.8535,-0.007152557373
3976.806625,-0.02193450928
3978.75975,0.01668930054
3980.712875,0.03528594971
3982.666,-0.0004768371582
3984.619125,-0.03433227539
3986.57225,-0.01049041748
3988.525375,0.01335144043
3990.4785,-0.005722045898
3992.431625,0.01955032349
3994.38475,0.03528594971
3996.337875,0.01287460327
3998.291,0.02717971802
4000.244125,0.02241134644
4002.19725,0.01621246338
4004.150375,0.04816055298
4006.1035,0.05531311035
4008.056625,0.05769729614
4010.00975,0.1034736633
4011.962875,0.1368522644
4013.916,0.1654624939
4015.869125,0.2999305725
4017.82225,0.4563331604
4019.775375,0.5044937134
4021.7285,0.5311965942
4023.681625,0.5984306335
4025.63475,0.6642341614
4027.587875,0.6890296936
4029.541,0.6942749023
4031.494125,0.7123947144
4033.44725,0.7152557373
4035.400375,0.7925033569
4037.3535,1.026630402
4039.306625,1.243591309
4041.25975,1.298427582
4043.212875,1.442909241
4045.166,1.773357391
4047.119125,1.956939697
4049.07225,1.924037933
4051.025375,1.819133759
4052.9785,1.720428467
4054.931625,1.564025879
4056.88475,1.228809357
4058.837875,0.9026527405
4060.791,0.6694793701
4062.744125,0.4062652588
4064.69725,0.2183914185
4066.650375,0.1440048218
4068.6035,0.04053115845
4070.556625,-0.06294250488
4072.50975,-0.03004074097
4074.462875,0.01096725464
4076.416,-0.1034736633
4078.369125,-0.1964569092
4080.32225,-0.1754760742
4082.275375,-0.1873970032
4084.2285,-0.22315979
4086.181625,-0.2460479736
4088.13475,-0.2703666687
4090.087875,-0.2255439758
4092.041,-0.1649856567
4093.994125,-0.07438659668
4095.94725,0.1220703125
4097.900375,0.2861022949
4099.8535,0.3261566162
4101.806625,0.349521637
4103.75975,0.3747940063
4105.712875,0.3538131714
4107.666,0.3480911255
4109.619125,0.3728866577
4111.57225,0.4100799561
4113.525375,0.431060791
4115.4785,0.3933906555
4117.431625,0.3657341003
4119.38475,0.3604888916
4121.337875,0.3552436829
4123.291,0.3805160522
4125.244125,0.4019737244
4127.19725,0.4172325134
4129.150375,0.4229545593
4131.1035,0.3867149353
4133.056625,0.3700256348
4135.00975,0.3862380981
4136.962875,0.3843307495
4138.916,0.3728866577
4140.869125,0.3709793091
4142.82225,0.3533363342
4144.775375,0.3499984741
4146.7285,0.3900527954
4148.681625,0.4086494446
4150.63475,0.3814697266
4152.587875,0.3509521484
4154.541,0.3442764282
4156.494125,0.3581047058
4158.44725,0.3747940063
4160.400375,0.3938674927
4162.3535,0.3895759583
4164.306625,0.3333091736
4166.25975,0.3027915955
4168.212875,0.3509521484
4170.166,0.3995895386
4172.119125,0.4072189331
4174.07225,0.4243850708
4176.025375,0.4243850708
4177.9785,0.3690719604
4179.931625,0.3428459167
4181.88475,0.3657341003
4183.837875,0.3967285156
4185.791,0.4096031189
4187.744125,0.4019737244
4189.69725,0.4224777222
4191.650375,0.4315376282
4193.6035,0.403881073
4195.556625,0.4315376282
4197.50975,0.4625320435
4199.462875,0.424861908
4201.416,0.4386901855
4203.369125,0.461101532
4205.32225,0.4014968872
4207.275375,0.3867149353
4209.2285,0.4258155823
4211.181625,0.4205703735
4213.13475,0.394821167
4215.087875,0.4096031189
4217.041,0.431060791
4218.994125,0.4425048828
4220.94725,0.4782676697
4222.900375,0.4806518555
4224.8535,0.4730224609
4226.806625,0.5159378052
4228.75975,0.5359649658
4230.712875,0.5369186401
4232.666,0.5488395691
4234.619125,0.5402565002
4236.57225,0.53358078
4238.525375,0.5493164063
4240.4785,0.5888938904
4242.431625,0.6279945374
4244.38475,0.6437301636
4246.337875,0.6647109985
4248.291,0.669002533
4250.244125,0.6461143494
4252.19725,0.6623268127
4254.150375,0.705242157
4256.1035,0.720500946
4258.056625,0.723361969
4260.00975,0.7572174072
4261.962875,0.8091926575
4263.916,0.8120536804
4265.869125,0.8001327515
4267.82225,0.8187294006
4269.775375,0.8101463318
4271.7285,0.8201599121
4273.681625,0.874042511
4275.63475,0.9098052979
4277.587875,0.9446144104
4279.541,0.9508132935
4281.494125,0.9303092957
4283.44725,0.9388923645
4285.400375,0.9393692017
4287.3535,0.9617805481
4289.306625,0.9870529175
4291.25975,0.9765625
4293.212875,1.042842865
4295.166,1.083850861
4297.119125,1.040458679
4299.07225,1.037120819
4301.025375,0.994682312
4302.9785,0.9632110596
4304.931625,1.015663147
4306.88475,1.005172729
4308.837875,0.967502594
4310.791,0.9894371033
4312.744125,1.016616821
4314.69725,1.009464264
4316.650375,0.9832382202
4318.6035,0.9450912476
4320.556625,0.9350776672
4322.50975,0.9641647339
4324.462875,0.9245872498
4326.416,0.8807182312
4328.369125,0.8635520935
4330.32225,0.7905960083
4332.275375,0.7476806641
4334.2285,0.7309913635
4336.181625,0.6852149963
4338.13475,0.6489753723
4340.087875,0.6275177002
4342.041,0.62084198
4343.994125,0.5888938904
4345.94725,0.5302429199
4347.900375,0.4911422729
4349.8535,0.4482269287
4351.806625,0.4172325134
4353.75975,0.4229545593
4355.712875,0.3838539124
4357.666,0.3004074097
4359.619125,0.2317428589
4361.57225,0.1726150513
4363.525375,0.1659393311
4365.4785,0.1721382141
4367.431625,0.1454353333
4369.38475,0.1292228699
4371.337875,0.09393692017
4373.291,0.04911422729
4375.244125,0.04243850708
4377.19725,0.02431869507
4379.150375,-0.0004768371582
4381.1035,-0.001907348633
4383.056625,-0.02908706665
4385.00975,-0.05483627319
4386.962875,-0.03671646118
4388.916,-0.0467300415
4390.869125,-0.06341934204
4392.82225,-0.02527236938
4394.775375,-0.05578994751
4396.7285,-0.1196861267
4398.681625,-0.084400177
4400.63475,-0.08201599121
4402.587875,-0.1177787781
4404.541,-0.09632110596
4406.494125,-0.1063346863
4408.44725,-0.1411437988
4410.400375,-0.1463890076
4412.3535,-0.1487731934
4414.306625,-0.1502037048
4416.25975,-0.1316070557
4418.212875,-0.129699707
4420.166,-0.1440048218
4422.119125,-0.1077651978
4424.07225,-0.07820129395
4426.025375,-0.102519989
4427.9785,-0.09155273438
4429.931625,-0.06818771362
4431.88475,-0.09202957153
4433.837875,-0.1282691956
4435.791,-0.1540184021
4437.744125,-0.120639801
4439.69725,-0.05626678467
4441.650375,-0.08106231689
4443.6035,-0.120639801
4445.556625,-0.06151199341
4447.50975,0.0009536743164
4449.462875,-0.02717971802
4451.416,-0.07343292236
4453.369125,-0.0696182251
4455.32225,-0.05102157593
4457.275375,-0.03433227539
4459.2285,-0.02717971802
4461.181625,-0.05912780762
4463.13475,-0.07104873657
4465.087875,-0.02670288086
4467.041,-0.003337860107
4468.994125,-0.02193450928
4470.94725,-0.04816055298
4472.900375,-0.06484985352
4474.8535,-0.07581710815
4476.806625,-0.06914138794
4478.75975,-0.08344650269
4480.712875,-0.09870529175
4482.666,-0.03147125244
4484.619125,-0.03004074097
4486.57225,-0.08487701416
4488.525375,-0.03433227539
4490.4785,-0.02431869507
4492.431625,-0.06246566772
4494.38475,-0.01001358032
4496.337875,0.02527236938
4498.291,-0.03910064697
4500.244125,-0.1001358032
4502.19725,-0.1039505005
4504.150375,-0.09155273438
4506.1035,-0.075340271
4508.056625,-0.06675720215
4510.00975,-0.06532669067
4511.962875,-0.02956390381
4513.916,-0.02813339233
4515.869125,-0.07009506226
4517.82225,-0.05578994751
4519.775375,-0.04959106445
4521.7285,-0.06055831909
4523.681625,-0.01382827759
4525.63475,0.01239776611
4527.587875,-0.005722045898
4529.541,-0.02336502075
4531.494125,-0.03147125244
4533.44725,-0.02574920654
4535.400375,-0.06151199341
4537.3535,-0.1149177551
4539.306625,-0.07104873657
4541.25975,0.02908706665
4543.212875,0.01525878906
4545.166,-0.08201599121
4547.119125,-0.09441375732
4549.07225,-0.06818771362
4551.025375,-0.09059906006
4552.9785,-0.1034736633
4554.931625,-0.09775161743
4556.88475,-0.1192092896
4558.837875,-0.1339912415
4560.791,-0.08344650269
4562.744125,-0.04768371582
4564.69725,-0.0958442688
4566.650375,-0.1306533813
4568.6035,-0.1039505005
4570.556625,-0.08726119995
4572.50975,-0.09822845459
4574.462875,-0.09918212891
4576.416,-0.09393692017
4578.369125,-0.1382827759
4580.32225,-0.1616477966
4582.275375,-0.1020431519
4584.2285,-0.1134872437
4586.181625,-0.1373291016
4588.13475,-0.1106262207
4590.087875,-0.1339912415
4592.041,-0.1277923584
4593.994125,-0.1201629639
4595.94725,-0.111579895
4597.900375,-0.08010864258
4599.8535,-0.1311302185
4601.806625,-0.1487731934
4603.75975,-0.1244544983
4605.712875,-0.1301765442
4607.666,-0.1168251038
4609.619125,-0.1373291016
4611.57225,-0.1473426819
4613.525375,-0.1096725464
4615.4785,-0.09059906006
4617.431625,-0.05340576172
4619.38475,-0.05292892456
4621.337875,-0.1015663147
4623.291,-0.1049041748
4625.244125,-0.09632110596
4627.19725,-0.1039505005
4629.150375,-0.138759613
4631.1035,-0.1420974731
4633.056625,-0.1091957092
4635.00975,-0.111579895
4636.962875,-0.09965896606
4638.916,-0.105381012
4640.869125,-0.1163482666
4642.82225,-0.04386901855
4644.775375,0.008106231689
4646.7285,-0.06103515625
4648.681625,-0.1130104065
4650.63475,-0.08344650269
4652.587875,-0.09298324585
4654.541,-0.105381012
4656.494125,-0.08010864258
4658.44725,-0.09441375732
4660.400375,-0.1268386841
4662.3535,-0.08583068848
4664.306625,-0.04768371582
4666.25975,-0.0901222229
4668.212875,-0.1087188721
4670.166,-0.08869171143
4672.119125,-0.05483627319
4674.07225,-0.03862380981
4676.025375,-0.0786781311
4677.9785,-0.06198883057
4679.931625,0.01049041748
4681.88475,-0.007152557373
4683.837875,-0.07200241089
4685.791,-0.08201599121
4687.744125,-0.06103515625
4689.69725,-0.04911422729
4691.650375,-0.04529953003
4693.6035,-0.03576278687
4695.556625,-0.01907348633
4697.50975,0.002861022949
4699.462875,0.01096725464
4701.416,-0.04053115845
4703.369125,-0.09346008301
4705.32225,-0.1168251038
4707.275375,-0.1039505005
4709.2285,-0.075340271
4711.181625,-0.06866455078
4713.13475,-0.0376701355
4715.087875,-0.04529953003
4717.041,-0.06008148193
4718.994125,-0.01764297485
4720.94725,-0.009536743164
4722.900375,-0.01859664917
4724.8535,-0.02002716064
4726.806625,-0.02670288086
4728.75975,-0.0433921814
4730.712875,-0.1077651978
4732.666,-0.1077651978
4734.619125,-0.0467300415
4736.57225,-0.04911422729
4738.525375,-0.0433921814
4740.4785,-0.0205039978
4742.431625,-0.04243850708
4744.38475,-0.03433227539
4746.337875,-0.01955032349
4748.291,-0.04768371582
4750.244125,-0.02002716064
4752.19725,-0.01049041748
4754.150375,-0.06675720215
4756.1035,-0.07724761963
4758.056625,-0.03290176392
4760.00975,0.0009536743164
4761.962875,-0.02670288086
4763.916,-0.03385543823
4765.869125,0.01621246338
4767.82225,0.03242492676
4769.775375,0.03242492676
4771.7285,0.0433921814
4773.681625,0.04959106445
4775.63475,0.03433227539
4777.587875,-0.0004768371582
4779.541,-0.01192092896
4781.494125,-0.05054473877
4783.44725,-0.05960464478
4785.400375,0.0581741333
4787.3535,0.1645088196
4789.306625,0.2098083496
4791.25975,0.2059936523
4793.212875,0.1740455627
4795.166,0.1935958862
4797.119125,0.198841095
4799.07225,0.1864433289
4801.025375,0.1902580261
4802.9785,0.1792907715
4804.931625,0.1740455627
4806.88475,0.1573562622
4808.837875,0.1788139343
4810.791,0.2241134644
4812.744125,0.2565383911
4814.69725,0.2975463867
4816.650375,0.2689361572
4818.6035,0.2245903015
4820.556625,0.2365112305
4822.50975,0.2293586731
4824.462875,0.1902580261
4826.416,0.156879425
4828.369125,0.1282691956
4830.32225,0.1101493835
4832.275375,0.07200241089
4834.2285,0.01096725464
4836.181625,0.0009536743164
4838.13475,0.004291534424
4840.087875,-0.04434585571
4842.041,-0.07247924805
4843.994125,-0.07486343384
4845.94725,-0.1068115234
4847.900375,-0.123500824
4849.8535,-0.1244544983
4851.806625,-0.147819519
4853.75975,-0.1645088196
4855.712875,-0.1692771912
4857.666,-0.1382827759
4859.619125,-0.07104873657
4861.57225,-0.1049041748
4863.525375,-0.1740455627
4865.4785,-0.156879425
4867.431625,-0.138759613
4869.38475,-0.1268386841
4871.337875,-0.07009506226
4873.291,-0.0004768371582
4875.244125,-0.003814697266
4877.19725,-0.04529953003
4879.150375,-0.05292892456
4881.1035,-0.05388259888
4883.056625,-0.04768371582
4885.00975,-0.03528594971
4886.962875,-0.04196166992
4888.916,-0.04482269287
4890.869125,-0.06437301636
4892.82225,-0.08010864258
4894.775375,-0.0376701355
4896.7285,0.01335144043
4898.681625,0.04196166992
4900.63475,0.03004074097
4902.587875,0.02527236938
4904.541,0.04863739014
4906.494125,0.02193450928
4908.44725,0.03147125244
4910.400375,0.04625320435
4912.3535,0.009536743164
4914.306625,0.02527236938
4916.25975,0.0524520874
4918.212875,0.08678436279
4920.166,0.1707077026
4922.119125,0.2751350403
4924.07225,0.3681182861
4926.025375,0.394821167
4927.9785,0.4262924194
4929.931625,0.5192756653
4931.88475,0.6251335144
4933.837875,0.6771087646
4935.791,0.6651878357
4937.744125,0.6823539734
4939.69725,0.7610321045
4941.650375,0.988483429
4943.6035,1.316070557
4945.556625,1.445293427
4947.50975,1.519203186
4949.462875,1.811027527
4951.416,2.060413361
4953.369125,2.116680145
4955.32225,2.045154572
4957.275375,1.852035522
4959.2285,1.678943634
4961.181625,1.444339752
4963.13475,1.125812531
4965.087875,0.9422302246
4967.041,0.7362365723
4968.994125,0.4372596741
4970.94725,0.2856254578
4972.900375,0.2374649048
4974.8535,0.1425743103
4976.806625,0.1106262207
4978.75975,0.156879425
4980.712875,0.1163482666
4982.666,0.03385543823
4984.619125,0.0171661377
4986.57225,0.004291534424
4988.525375,-0.03051757813
4990.4785,-0.09918212891
4992.431625,-0.2298355103
4994.38475,-0.2660751343
4996.337875,-0.1749992371
4998.291,-0.1006126404
5000.244125,0.02765655518
5002.19725,0.214099884
5004.150375,0.2918243408
5006.1035,0.3223419189
5008.056625,0.3724098206
5010.00975,0.3385543823
5011.962875,0.2999305725
5013.916,0.319480896
5015.869125,0.3547668457
5017.82225,0.3890991211
5019.775375,0.3595352173
5021.7285,0.3323554993
5023.681625,0.3662109375
5025.63475,0.3724098206
5027.587875,0.2989768982
5029.541,0.2613067627
5031.494125,0.3113746643
5033.44725,0.2956390381
5035.400375,0.26512146
5037.3535,0.2975463867
5039.306625,0.3209114075
5041.25975,0.3108978271
5043.212875,0.3051757813
5045.166,0.3266334534
5047.119125,0.3309249878
5049.07225,0.3290176392
5051.025375,0.3156661987
5052.9785,0.3008842468
5054.931625,0.3347396851
5056.88475,0.3547668457
5058.837875,0.3390312195
5060.791,0.3046989441
5062.744125,0.2765655518
5064.69725,0.2794265747
5066.650375,0.2760887146
5068.6035,0.2946853638
5070.556625,0.3023147583
5072.50975,0.289440155
5074.462875,0.31042099
5076.416,0.292301178
5078.369125,0.253200531
5080.32225,0.2837181091
5082.275375,0.3385543823
5084.2285,0.3652572632
5086.181625,0.3480911255
5088.13475,0.292301178
5090.087875,0.2493858337
5092.041,0.2765655518
5093.994125,0.3423690796
5095.94725,0.3490447998
5097.900375,0.3142356873
5099.8535,0.3113746643
5101.806625,0.3175735474
5103.75975,0.3118515015
5105.712875,0.2870559692
5107.666,0.280380249
5109.619125,0.3299713135
5111.57225,0.3914833069
5113.525375,0.4067420959
5115.4785,0.3566741943
5117.431625,0.2760887146
5119.38475,0.244140625
5121.337875,0.3118515015
5123.291,0.3538131714
5125.244125,0.3519058228
5127.19725,0.4153251648
5129.150375,0.4029273987
5131.1035,0.358581543
5133.056625,0.4229545593
5135.00975,0.4534721375
5136.962875,0.4496574402
5138.916,0.4558563232
5140.869125,0.4372596741
5142.82225,0.4844665527
5144.775375,0.5164146423
5146.7285,0.4186630249
5148.681625,0.4014968872
5150.63475,0.479221344
5152.587875,0.4768371582
5154.541,0.4982948303
5156.494125,0.5550384521
5158.44725,0.5798339844
5160.400375,0.6289482117
5162.3535,0.645160675
5164.306625,0.6084442139
5166.25975,0.6136894226
5168.212875,0.6875991821
5170.166,0.75340271
5172.119125,0.7448196411
5174.07225,0.7209777832
5176.025375,0.7243156433
5177.9785,0.744342804
5179.931625,0.723361969
5181.88475,0.7042884827
5183.837875,0.771522522
5185.791,0.7767677307
5187.744125,0.777721405
5189.69725,0.8869171143
5191.650375,0.8745193481
5193.6035,0.7967948914
5195.556625,0.8563995361
5197.50975,0.8854866028
5199.462875,0.8630752563
5201.416,0.8869171143
5203.369125,0.871181488
5205.32225,0.8430480957
5207.275375,0.8606910706
5209.2285,0.8635520935
5211.181625,0.8420944214
5213.13475,0.8296966553
5215.087875,0.8535385132
5217.041,0.9336471558
5218.994125,0.9422302246
5220.94725,0.8754730225
5222.900375,0.8683204651
5224.8535,0.8144378662
5226.806625,0.7033348083
5228.75975,0.6942749023
5230.712875,0.6899833679
5232.666,0.6518363953
5234.619125,0.6465911865
5236.57225,0.6184577942
5238.525375,0.627040863
5240.4785,0.6551742554
5242.431625,0.5836486816
5244.38475,0.515460968
5246.337875,0.5111694336
5248.291,0.449180603
5250.244125,0.3914833069
5252.19725,0.4334449768
5254.150375,0.4124641418
5256.1035,0.3170967102
5258.056625,0.2961158752
5260.00975,0.2527236938
5261.962875,0.1697540283
5263.916,0.1521110535
5265.869125,0.1420974731
5267.82225,0.1382827759
5269.775375,0.138759613
5271.7285,0.105381012
5273.681625,0.09727478027
5275.63475,0.0581741333
5277.587875,0.009536743164
5279.541,0.07390975952
5281.4943,0.1068115234
5283.447424,0.0319480896
5285.400548,-0.02288818359
5287.353672,-0.02813339233
5289.306796,-0.04196166992
5291.25992,-0.09250640869
5293.213044,-0.08153915405
5295.166168,-0.03099441528
5297.119292,-0.0901222229
5299.072416,-0.1554489136
5301.02554,-0.1354217529
5302.978664,-0.1258850098
5304.931788,-0.1268386841
5306.884912,-0.07772445679
5308.838036,-0.04291534424
5310.79116,-0.06532669067
5312.744284,-0.08726119995
5314.697408,-0.114440918
5316.650532,-0.1411437988
5318.603656,-0.1463890076
5320.55678,-0.1516342163
5322.509904,-0.1463890076
5324.463028,-0.1363754272
5326.416152,-0.1230239868
5328.369276,-0.1149177551
5330.3224,-0.1320838928
5332.275524,-0.1273155212
5334.228648,-0.1039505005
5336.181772,-0.1220703125
5338.134896,-0.1330375671
5340.08802,-0.1010894775
5342.041144,-0.09250640869
5343.994268,-0.09965896606
5345.947392,-0.08964538574
5347.900516,-0.06484985352
5349.85364,-0.03242492676
5351.806764,-0.06294250488
5353.759888,-0.09346008301
5355.713012,-0.07581710815
5357.666136,-0.09202957153
5359.61926,-0.06484985352
5361.572384,-0.001430511475
5363.525508,-0.01382827759
5365.478632,-0.07295608521
5367.431756,-0.1010894775
5369.38488,-0.07295608521
5371.338004,-0.07390975952
5373.291128,-0.084400177
5375.244252,-0.05865097046
5377.197376,-0.084400177
5379.1505,-0.07820129395
5381.103624,-0.03099441528
5383.056748,-0.05388259888
5385.009872,-0.08344650269
5386.962996,-0.07820129395
5388.91612,-0.07104873657
5390.869244,-0.07963180542
5392.822368,-0.1001358032
5394.775492,-0.07247924805
5396.728616,-0.006675720215
5398.68174,-0.008583068848
5400.634864,-0.04816055298
5402.587988,-0.02241134644
5404.541112,0.007629394531
5406.494236,-0.02813339233
5408.44736,-0.03910064697
5410.400484,-0.01335144043
5412.353608,-0.02527236938
5414.306732,-0.03147125244
5416.259856,-0.0147819519
5418.21298,-0.02431869507
5420.166104,-0.07438659668
5422.119228,-0.06866455078
5424.072352,-0.02527236938
5426.025476,-0.06437301636
5427.9786,-0.07247924805
5429.931724,-0.02098083496
5431.884848,-0.03480911255
5433.837972,-0.0638961792
5435.791096,-0.04768371582
5437.74422,-0.04863739014
5439.697344,-0.08535385132
5441.650468,-0.1006126404
5443.603592,-0.09346008301
5445.556716,-0.07963180542
5447.50984,-0.08296966553
5449.462964,-0.1077651978
5451.416088,-0.09822845459
5453.369212,-0.06771087646
5455.322336,-0.05626678467
5457.27546,-0.08201599121
5459.228584,-0.08487701416
5461.181708,-0.01955032349
5463.134832,-0.04959106445
5465.087956,-0.1492500305
5467.04108,-0.1196861267
5468.994204,-0.03862380981
5470.947328,-0.04434585571
5472.900452,-0.04196166992
5474.853576,0.01239776611
5476.8067,-0.02288818359
5478.759824,-0.0901222229
5480.712948,-0.09632110596
5482.666072,-0.1201629639
5484.619196,-0.114440918
5486.57232,-0.04911422729
5488.525444,-0.06437301636
5490.478568,-0.147819519
5492.431692,-0.1440048218
5494.384816,-0.1254081726
5496.33794,-0.1430511475
5498.291064,-0.1192092896
5500.244188,-0.1001358032
5502.197312,-0.1082420349
5504.150436,-0.1044273376
5506.10356,-0.1001358032
5508.056684,-0.09155273438
5510.009808,-0.08869171143
5511.962932,-0.105381012
5513.916056,-0.1230239868
5515.86918,-0.1463890076
5517.822304,-0.1516342163
5519.775428,-0.1149177551
5521.728552,-0.1063346863
5523.681676,-0.1101493835
5525.6348,-0.1358985901
5527.587924,-0.1997947693
5529.541048,-0.1735687256
5531.494172,-0.1440048218
5533.447296,-0.1535415649
5535.40042,-0.08773803711
5537.353544,-0.04529953003
5539.306668,-0.04243850708
5541.259792,-0.02336502075
5543.212916,-0.04959106445
5545.16604,-0.1163482666
5547.119164,-0.1540184021
5549.072288,-0.1177787781
5551.025412,-0.1096725464
5552.978536,-0.1502037048
5554.93166,-0.1339912415
5556.884784,-0.1311302185
5558.837908,-0.1468658447
5560.791032,-0.1339912415
5562.744156,-0.1530647278
5564.69728,-0.1249313354
5566.650404,-0.084400177
5568.603528,-0.138759613
5570.556652,-0.1139640808
5572.509776,-0.04577636719
5574.4629,-0.06294250488
5576.416024,-0.06628036499
5578.369148,-0.1072883606
5580.322272,-0.1525878906
5582.275396,-0.1149177551
5584.22852,-0.08583068848
5586.181644,-0.06341934204
5588.134768,-0.07581710815
5590.087892,-0.1192092896
5592.041016,-0.1473426819
5593.99414,-0.138759613
5595.947264,-0.06818771362
5597.900388,-0.05102157593
5599.853512,-0.07104873657
5601.806636,-0.06818771362
5603.75976,-0.08821487427
5605.712884,-0.09298324585
5607.666008,-0.1182556152
5609.619132,-0.1134872437
5611.572256,-0.02765655518
5613.52538,-0.01621246338
5615.478504,-0.0376701355
5617.431628,-0.03242492676
5619.384752,-0.07820129395
5621.337876,-0.1182556152
5623.291,-0.08821487427
5625.244124,-0.02193450928
5627.197248,0.0376701355
5629.150372,0.08964538574
5631.103496,0.1087188721
5633.05662,0.1072883606
5635.009744,0.1368522644
5636.962868,0.1730918884
5638.915992,0.2026557922
5640.869116,0.1964569092
5642.82224,0.1945495605
5644.775364,0.1926422119
5646.728488,0.1358985901
5648.681612,0.1182556152
5650.634736,0.1382827759
5652.58786,0.1068115234
5654.540984,0.007152557373
5656.494108,0.01859664917
5658.447232,0.1831054688
5660.400356,0.2179145813
5662.35348,0.1449584961
5664.306604,0.1554489136
5666.259728,0.1635551453
5668.212852,0.09775161743
5670.165976,0.05626678467
5672.1191,0.04816055298
5674.072224,0.01955032349
5676.025348,-0.01573562622
5677.978472,-0.07104873657
5679.931596,-0.1063346863
5681.88472,-0.08964538574
5683.837844,-0.1096725464
5685.790968,-0.1311302185
5687.744092,-0.1277923584
5689.697216,-0.1320838928
5691.65034,-0.1049041748
5693.603464,-0.1020431519
5695.556588,-0.1182556152
5697.509712,-0.1034736633
5699.462836,-0.1049041748
5701.41596,-0.1292228699
5703.369084,-0.1649856567
5705.322208,-0.1969337463
5707.275332,-0.2217292786
5709.228456,-0.26512146
5711.18158,-0.2980232239
5713.134704,-0.2059936523
5715.087828,-0.08535385132
5717.040952,-0.07820129395
5718.994076,-0.07438659668
5720.9472,-0.06151199341
5722.900324,-0.04816055298
5724.853448,-0.03814697266
5726.806572,-0.07390975952
5728.759696,-0.08344650269
5730.71282,-0.08106231689
5732.665944,-0.1277923584
5734.619068,-0.1120567322
5736.572192,-0.075340271
5738.525316,-0.1120567322
5740.47844,-0.1020431519
5742.431564,-0.08010864258
5744.384688,-0.1177787781
5746.337812,-0.1087188721
5748.290936,-0.07295608521
5750.24406,-0.07295608521
5752.197184,-0.07629394531
5754.150308,-0.07486343384
5756.103432,-0.06055831909
5758.056556,-0.01668930054
5760.00968,-0.009536743164
5761.962804,-0.03671646118
5763.915928,-0.01335144043
5765.869052,0.06580352783
5767.822176,0.1735687256
5769.7753,0.3242492676
5771.728424,0.4444122314
5773.681548,0.4549026489
5775.634672,0.4820823669
5777.587796,0.5359649658
5779.54092,0.5435943604
5781.494044,0.5903244019
5783.447168,0.6265640259
5785.400292,0.6484985352
5787.353416,0.8091926575
5789.30654,1.102924347
5791.259664,1.294136047
5793.212788,1.386642456
5795.165912,1.635074615
5797.119036,1.893520355
5799.07216,1.983642578
5801.025284,1.922130585
5802.978408,1.770973206
5804.931532,1.629829407
5806.884656,1.37424469
5808.83778,1.049041748
5810.790904,0.8325576782
5812.744028,0.611782074
5814.697152,0.3790855408
5816.650276,0.2627372742
5818.6034,0.1945495605
5820.556524,0.1358985901
5822.509648,0.114440918
5824.462772,0.1058578491
5826.415896,0.08964538574
5828.36902,0.008106231689
5830.322144,-0.075340271
5832.275268,-0.1058578491
5834.228392,-0.1616477966
5836.181516,-0.232219696
5838.13464,-0.2613067627
5840.087764,-0.2102851868
5842.040888,-0.09727478027
5843.994012,-0.02384185791
5845.947136,0.05102157593
5847.90026,0.2222061157
5849.853384,0.4072189331
5851.806508,0.4773139954
5853.759632,0.4138946533
5855.712756,0.3385543823
5857.66588,0.292301178
5859.619004,0.2632141113
5861.572128,0.3089904785
5863.525252,0.3232955933
5865.478376,0.2641677856
5867.4315,0.2794265747
5869.384624,0.3018379211
5871.337748,0.2422332764
5873.290872,0.2436637878
5875.243996,0.2808570862
5877.19712,0.2698898315
5879.150244,0.2808570862
5881.103368,0.2808570862
5883.056492,0.2746582031
5885.009616,0.2961158752
5886.96274,0.2584457397
5888.915864,0.1821517944
5890.868988,0.2021789551
5892.822112,0.2756118774
5894.775236,0.2450942993
5896.72836,0.189781189
5898.681484,0.2632141113
5900.634608,0.349521637
5902.587732,0.3204345703
5904.540856,0.2779960632
5906.49398,0.2732276917
5908.447104,0.2722740173
5910.400228,0.3027915955
5912.353352,0.3023147583
5914.306476,0.2593994141
5916.2596,0.2374649048
5918.212724,0.2384185791
5920.165848,0.2512931824
5922.118972,0.1997947693
5924.072096,0.1797676086
5926.02522,0.2465248108
5927.978344,0.2708435059
5929.931468,0.2765655518
5931.884592,0.3023147583
5933.837716,0.3175735474
5935.79084,0.2665519714
5937.743964,0.2007484436
5939.697088,0.2160072327
5941.650212,0.2269744873
5943.603336,0.2164840698
5945.55646,0.2632141113
5947.509584,0.3409385681
5949.462708,0.3690719604
5951.415832,0.3423690796
5953.368956,0.292301178
5955.32208,0.2813339233
5957.275204,0.3056526184
5959.228328,0.2951622009
5961.181452,0.2961158752
5963.134576,0.3228187561
5965.0877,0.3175735474
5967.040824,0.2827644348
5968.993948,0.2908706665
5970.947072,0.3910064697
5972.900196,0.4510879517
5974.85332,0.367641449
5976.806444,0.298500061
5978.759568,0.3132820129
5980.712692,0.3180503845
5982.665816,0.3390312195
5984.61894,0.4005432129
5986.572064,0.4453659058
5988.525188,0.4625320435
5990.478312,0.5078315735
5992.431436,0.5059242249
5994.38456,0.4200935364
5996.337684,0.4119873047
5998.290808,0.4367828369
6000.243932,0.4467964172
6002.197056,0.5440711975
6004.15018,0.608921051
6006.103304,0.554561615
6008.056428,0.5440711975
6010.009552,0.593662262
6011.962676,0.6151199341
6013.9158,0.6546974182
6015.868924,0.6828308105
6017.822048,0.6656646729
6019.775172,0.6856918335
6021.728296,0.7095336914
6023.68142,0.7047653198
6025.634544,0.7200241089
6027.587668,0.744342804
6029.540792,0.7281303406
6031.493916,0.7200241089
6033.44704,0.7586479187
6035.400164,0.7719993591
6037.353288,0.7557868958
6039.306412,0.7438659668
6041.259536,0.7381439209
6043.21266,0.7801055908
6045.165784,0.8487701416
6047.118908,0.8811950684
6049.072032,0.8625984192
6051.025156,0.8053779602
6052.97828,0.7872581482
6054.931404,0.8149147034
6056.884528,0.759601593
6058.837652,0.7066726685
6060.790776,0.7719993591
6062.7439,0.8296966553
6064.697024,0.8502006531
6066.650148,0.8435249329
6068.603272,0.771522522
6070.556396,0.7271766663
6072.50952,0.7295608521
6074.462644,0.6718635559
6076.415768,0.6103515625
6078.368892,0.6165504456
6080.322016,0.5965232849
6082.27514,0.5602836609
6084.228264,0.5955696106
6086.181388,0.572681427
6088.134512,0.4591941833
6090.087636,0.449180603
6092.04076,0.5145072937
6093.993884,0.4811286926
6095.947008,0.3252029419
6097.900132,0.256061554
6099.853256,0.2889633179
6101.80638,0.2379417419
6103.759504,0.2040863037
6105.712628,0.1931190491
6107.665752,0.1487731934
6109.618876,0.1420974731
6111.572,0.1373291016
6113.525124,0.1292228699
6115.478248,0.114440918
6117.431372,0.04053115845
6119.384496,-0.0147819519
6121.33762,-0.007629394531
6123.290744,-0.0171661377
6125.243868,-0.06008148193
6127.196992,-0.06246566772
6129.150116,-0.0147819519
6131.10324,-0.04148483276
6133.056364,-0.09155273438
6135.009488,-0.04482269287
6136.962612,-0.0114440918
6138.915736,-0.006198883057
6140.86886,-0.03385543823
6142.821984,-0.1111030579
6144.775108,-0.1263618469
6146.728232,-0.1015663147
6148.681356,-0.09918212891
6150.63448,-0.1130104065
6152.587604,-0.1082420349
6154.540728,-0.06294250488
6156.493852,-0.0696182251
6158.446976,-0.1211166382
6160.4001,-0.1363754272
6162.353224,-0.1306533813
6164.306348,-0.147819519
6166.259472,-0.1592636108
6168.212596,-0.1502037048
6170.16572,-0.1645088196
6172.118844,-0.1254081726
6174.071968,-0.02717971802
6176.025092,-0.03814697266
6177.978216,-0.1411437988
6179.93134,-0.1544952393
6181.884464,-0.06055831909
6183.837588,-0.0262260437
6185.790712,-0.06580352783
6187.743836,-0.105381012
6189.69696,-0.1659393311
6191.650084,-0.1239776611
6193.603208,-0.03910064697
6195.556332,-0.09250640869
6197.509456,-0.1244544983
6199.46258,-0.07963180542
6201.415704,-0.05960464478
6203.368828,-0.0696182251
6205.321952,-0.1182556152
6207.275076,-0.1559257507
6209.2282,-0.1230239868
6211.181324,-0.08344650269
6213.134448,-0.0581741333
6215.087572,-0.04100799561
6217.040696,-0.03480911255
6218.99382,-0.01764297485
6220.946944,-0.06055831909
6222.900068,-0.1397132874
6224.853192,-0.09918212891
6226.806316,-0.04196166992
6228.75944,-0.05912780762
6230.712564,-0.04911422729
6232.665688,-0.06294250488
6234.618812,-0.08201599121
6236.571936,-0.01192092896
6238.52506,0.01621246338
6240.478184,-0.04100799561
6242.431308,-0.04911422729
6244.384432,-0.02717971802
6246.337556,-0.06437301636
6248.29068,-0.09870529175
6250.243804,-0.05912780762
6252.196928,-0.0004768371582
6254.150052,0.02479553223
6256.103176,0.02336502075
6258.0563,-0.03147125244
6260.009424,-0.05102157593
6261.962548,0.001430511475
6263.915672,0.03004074097
6265.868796,0.03528594971
6267.82192,0.002861022949
6269.775044,-0.01430511475
6271.728168,-0.001430511475
6273.681292,-0.02861022949
6275.634416,-0.01525878906
6277.58754,0.01239776611
6279.540664,-0.01859664917
6281.493788,-0.02098083496
6283.446912,0.001430511475
6285.400036,-0.01859664917
6287.35316,0.01192092896
6289.306284,0.07200241089
6291.259408,0.04434585571
6293.212532,0.006675720215
6295.165656,0.01287460327
6297.11878,-0.004291534424
6299.071904,-0.01430511475
6301.025028,0.03385543823
6302.978152,0.06246566772
6304.931276,0.02956390381
6306.8844,-0.04720687866
6308.837524,-0.07200241089
6310.790648,0.003337860107
6312.743772,-0.004768371582
6314.696896,-0.0696182251
6316.65002,-0.06628036499
6318.603144,-0.02431869507
6320.556268,-0.009536743164
6322.509392,-0.07200241089
6324.462516,-0.04959106445
6326.41564,0.04291534424
6328.368764,-0.0147819519
6330.321888,-0.09202957153
6332.275012,-0.09346008301
6334.228136,-0.09870529175
6336.18126,-0.03862380981
6338.134384,0.01335144043
6340.087508,-0.02908706665
6342.040632,-0.04386901855
6343.993756,-0.01049041748
6345.94688,-0.03290176392
6347.900004,-0.07629394531
6349.853128,-0.04243850708
6351.806252,-0.01955032349
6353.759376,-0.008106231689
6355.7125,0.003814697266
6357.665624,-0.07152557373
6359.618748,-0.1101493835
6361.571872,-0.06246566772
6363.524996,-0.05531311035
6365.47812,-0.06866455078
6367.431244,-0.06866455078
6369.384368,-0.1187324524
6371.337492,-0.1649856567
6373.290616,-0.1125335693
6375.24374,-0.06866455078
6377.196864,-0.08344650269
6379.149988,-0.07390975952
6381.103112,-0.09059906006
6383.056236,-0.07820129395
6385.00936,0.007152557373
6386.962484,-0.002861022949
6388.915608,-0.06055831909
6390.868732,-0.0433921814
6392.821856,-0.03814697266
6394.77498,-0.0901222229
6396.728104,-0.1015663147
6398.681228,-0.06151199341
6400.634352,-0.1072883606
6402.587476,-0.1049041748
6404.5406,-0.01907348633
6406.493724,-0.01859664917
6408.446848,-0.004768371582
6410.399972,-0.008106231689
6412.353096,-0.07772445679
6414.30622,-0.09870529175
6416.259344,-0.07486343384
6418.212468,-0.05674362183
6420.165592,-0.05006790161
6422.118716,-0.02193450928
6424.07184,-0.003337860107
6426.024964,-0.01907348633
6427.978088,-0.004291534424
6429.931212,0.03528594971
6431.884336,0.02574920654
6433.83746,-0.07247924805
6435.790584,-0.1564025879
6437.743708,-0.1487731934
6439.696832,-0.1277923584
6441.649956,-0.08630752563
6443.60308,-0.05865097046
6445.556204,-0.07104873657
6447.509328,-0.02717971802
6449.462452,0.02193450928
6451.415576,0.0004768371582
6453.3687,-0.01049041748
6455.321824,0.03957748413
6457.274948,0.06008148193
6459.228072,0.03480911255
6461.181196,-0.002861022949
6463.13432,-0.04482269287
6465.087444,0.02527236938
6467.040568,0.06246566772
6468.993692,-0.02908706665
6470.946816,0.04053115845
6472.89994,0.171661377
6474.853064,0.2336502075
6476.806188,0.2689361572
6478.759312,0.1859664917
6480.712436,0.1893043518
6482.66556,0.2665519714
6484.618684,0.2307891846
6486.571808,0.2155303955
6488.524932,0.22315979
6490.478056,0.244140625
6492.43118,0.3008842468
6494.384304,0.2474784851
6496.337428,0.1621246338
6498.290552,0.195980072
6500.243676,0.2665519714
6502.1968,0.2508163452
6504.149924,0.1592636108
6506.103048,0.1502037048
6508.056172,0.1420974731
6510.009296,0.07963180542
6511.96242,0.1149177551
6513.915544,0.1282691956
6515.868668,0.07152557373
6517.821792,0.05531311035
6519.774916,0.01859664917
6521.72804,-0.03623962402
6523.681164,-0.07677078247
6525.634288,-0.06771087646
6527.587412,-0.02098083496
6529.540536,-0.04768371582
6531.49366,-0.1010894775
6533.446784,-0.1139640808
6535.399908,-0.09298324585
6537.353032,-0.05626678467
6539.306156,-0.05388259888
6541.25928,-0.06628036499
6543.212404,-0.03004074097
6545.165528,-0.006198883057
6547.118652,-0.0262260437
6549.071776,-0.04100799561
6551.0249,-0.07390975952
6552.978024,-0.08010864258
6554.931148,-0.09679794312
6556.884272,-0.1268386841
6558.837396,-0.08964538574
6560.79052,-0.06484985352
6562.743644,-0.06914138794
6564.696768,-0.08487701416
6566.649892,-0.07200241089
6568.603016,-0.04816055298
6570.55614,-0.04959106445
6572.509264,-0.03862380981
6574.462388,-0.08106231689
6576.415512,-0.1168251038
6578.368636,-0.08010864258
6580.32176,-0.075340271
6582.274884,-0.07009506226
6584.228008,-0.03671646118
6586.181132,-0.09775161743
6588.134256,-0.1511573792
6590.08738,-0.07057189941
6592.040504,-0.05435943604
6593.993628,-0.1182556152
6595.946752,-0.09393692017
6597.899876,-0.04243850708
6599.853,-0.007152557373
6601.806625,0.04482269287
6603.75975,0.05960464478
6605.712875,0.03528594971
6607.666,0.1130104065
6609.619125,0.2875328064
6611.57225,0.3852844238
6613.525375,0.3819465637
6615.4785,0.3967285156
6617.431625,0.4444122314
6619.38475,0.4858970642
6621.337875,0.5664825439
6623.291,0.6475448608
6625.244125,0.6628036499
6627.19725,0.6856918335
6629.150375,0.7739067078
6631.1035,1.009941101
6633.056625,1.262187958
6635.00975,1.326084137
6636.962875,1.443386078
6638.916,1.713752747
6640.869125,1.857757568
6642.82225,1.829147339
6644.775375,1.783847809
6646.7285,1.718521118
6648.681625,1.492500305
6650.63475,1.184940338
6652.587875,0.9598731995
6654.541,0.6594657898
6656.494125,0.2918243408
6658.44725,0.1440048218
6660.400375,0.1125335693
6662.3535,0.01049041748
6664.306625,0.01907348633
6666.25975,0.1754760742
6668.212875,0.2059936523
6670.166,0.05340576172
6672.119125,-0.0433921814
6674.07225,-0.03337860107
6676.025375,-0.07247924805
6677.9785,-0.1697540283
6679.931625,-0.2064704895
6681.88475,-0.1797676086
6683.837875,-0.1382827759
6685.791,-0.06866455078
6687.744125,0.03433227539
6689.69725,0.1931190491
6691.650375,0.3552436829
6693.6035,0.4267692566
6695.556625,0.4572868347
6697.50975,0.4353523254
6699.462875,0.3838539124
6701.416,0.3991127014
6703.369125,0.4377365112
6705.32225,0.4405975342
6707.275375,0.4115104675
6709.2285,0.3752708435
6711.181625,0.3294944763
6713.13475,0.301361084
6715.087875,0.3223419189
6717.041,0.3409385681
6718.994125,0.3204345703
6720.94725,0.2951622009
6722.900375,0.2727508545
6724.8535,0.2703666687
6726.806625,0.3151893616
6728.75975,0.3318786621
6730.712875,0.3046989441
6732.666,0.3046989441
6734.619125,0.3094673157
6736.57225,0.3156661987
6738.525375,0.3156661987
6740.4785,0.2899169922
6742.431625,0.2932548523
6744.38475,0.3137588501
6746.337875,0.2965927124
6748.291,0.2684593201
6750.244125,0.2655982971
6752.19725,0.2875328064
6754.150375,0.3280639648
6756.1035,0.346660614
6758.056625,0.3552436829
6760.00975,0.3795623779
6761.962875,0.3547668457
6763.916,0.3113746643
6765.869125,0.319480896
6767.82225,0.3361701965
6769.775375,0.3252029419
6771.7285,0.2846717834
6773.681625,0.2784729004
6775.63475,0.3433227539
6777.587875,0.3633499146
6779.541,0.3280639648
6781.494125,0.3399848938
6783.44725,0.3490447998
6785.400375,0.3347396851
6787.3535,0.3385543823
6789.306625,0.3318786621
6791.25975,0.3414154053
6793.212875,0.3871917725
6795.166,0.4243850708
6797.119125,0.3900527954
6799.07225,0.3471374512
6801.025375,0.3886222839
6802.9785,0.4229545593
6804.931625,0.4262924194
6806.88475,0.4091262817
6808.837875,0.3552436829
6810.791,0.3709793091
6812.744125,0.3924369812
6814.69725,0.35572052
6816.650375,0.3533363342
6818.6035,0.3709793091
6820.556625,0.4181861877
6822.50975,0.5164146423
6824.462875,0.5679130554
6826.416,0.5321502686
6828.369125,0.4963874817
6830.32225,0.5006790161
6832.275375,0.4777908325
6834.2285,0.4410743713
6836.181625,0.5021095276
6838.13475,0.5645751953
6840.087875,0.5664825439
6842.041,0.6237030029
6843.994125,0.659942627
6845.94725,0.6318092346
6847.900375,0.6294250488
6849.8535,0.6723403931
6851.806625,0.7481575012
6853.75975,0.750541687
6855.712875,0.6823539734
6857.666,0.7076263428
6859.619125,0.7891654968
6861.57225,0.8106231689
6863.525375,0.8397102356
6865.4785,0.8940696716
6867.431625,0.8702278137
6869.38475,0.8187294006
6871.337875,0.8230209351
6873.291,0.8082389832
6875.244125,0.8153915405
6877.19725,0.8888244629
6879.150375,0.8897781372
6881.1035,0.8778572083
6883.056625,0.913143158
6885.00975,0.9245872498
6886.962875,0.9388923645
6888.916,0.9407997131
6890.869125,0.9579658508
6892.82225,0.9531974792
6894.775375,0.8969306946
6896.7285,0.9279251099
6898.681625,0.946521759
6900.63475,0.8869171143
6902.587875,0.8974075317
6904.541,0.9150505066
6906.494125,0.8678436279
6908.44725,0.8692741394
6910.400375,0.880241394
6912.3535,0.7929801941
6914.306625,0.7319450378
6916.25975,0.7362365723
6918.212875,0.7209777832
6920.166,0.6895065308
6922.119125,0.6775856018
6924.07225,0.7042884827
6926.025375,0.675201416
6927.9785,0.6065368652
6929.931625,0.5984306335
6931.88475,0.5550384521
6933.837875,0.4692077637
6935.791,0.4482269287
6937.744125,0.4301071167
6939.69725,0.3437995911
6941.650375,0.2865791321
6943.6035,0.3099441528
6945.556625,0.3213882446
6947.50975,0.298500061
6949.462875,0.2574920654
6951.416,0.1878738403
6953.369125,0.1602172852
6955.32225,0.1282691956
6957.275375,0.08678436279
6959.2285,0.1187324524
6961.181625,0.1106262207
6963.13475,0.07057189941
6965.087875,0.05483627319
6967.041,-0.02479553223
6968.994125,-0.1029968262
6970.94725,-0.03719329834
6972.900375,0.09250640869
6974.8535,0.0786781311
6976.806625,-0.03814697266
6978.75975,-0.06437301636
6980.712875,-0.02670288086
6982.666,-0.07963180542
6984.619125,-0.1759529114
6986.57225,-0.1587867737
6988.525375,-0.09775161743
6990.4785,-0.07772445679
6992.431625,-0.06341934204
6994.38475,-0.06484985352
6996.337875,-0.06103515625
6998.291,-0.06580352783
7000.244125,-0.1277923584
7002.19725,-0.1497268677
7004.150375,-0.1354217529
7006.1035,-0.1640319824
7008.056625,-0.1864433289
7010.00975,-0.1468658447
7011.962875,-0.0786781311
7013.916,-0.07915496826
7015.869125,-0.09107589722
7017.82225,-0.07963180542
7019.775375,-0.1139640808
7021.7285,-0.1249313354
7023.681625,-0.09536743164
7025.63475,-0.1034736633
7027.587875,-0.1192092896
7029.541,-0.08249282837
7031.494125,-0.06580352783
7033.44725,-0.08487701416
7035.400375,-0.08153915405
7037.3535,-0.1521110535
7039.306625,-0.1921653748
7041.25975,-0.1282691956
7043.212875,-0.1149177551
7045.166,-0.1015663147
7047.119125,-0.08535385132
7049.07225,-0.1044273376
7051.025375,-0.1015663147
7052.9785,-0.06151199341
7054.931625,-0.04577636719
7056.88475,-0.06818771362
7058.837875,-0.07009506226
7060.791,-0.08583068848
7062.744125,-0.075340271
7064.69725,-0.03290176392
7066.650375,-0.02384185791
7068.6035,-0.003337860107
7070.556625,0.02193450928
7072.50975,0.009059906006
7074.462875,-0.00524520874
7076.416,0.01239776611
7078.369125,-0.02098083496
7080.32225,-0.08964538574
7082.275375,-0.03099441528
7084.2285,0.1020431519
7086.181625,0.1173019409
7088.13475,0.03242492676
7090.087875,0.00524520874
7092.041,0.01764297485
7093.994125,0.01907348633
7095.94725,0.02384185791
7097.900375,0.00524520874
7099.8535,0.02431869507
7101.806625,0.0467300415
7103.75975,0.01049041748
7105.712875,0.01525878906
7107.666,0.06484985352
7109.619125,0.07581710815
7111.57225,0.02431869507
7113.525375,0.004768371582
7115.4785,0.05769729614
7117.431625,0.05006790161
7119.38475,0.03004074097
7121.337875,0.08678436279
7123.291,0.07963180542
7125.244125,0.03814697266
7127.19725,0.07247924805
7129.150375,0.1082420349
7131.1035,0.08583068848
7133.056625,0.02384185791
7135.00975,0.01239776611
7136.962875,0.05769729614
7138.916,0.05435943604
7140.869125,0.01573562622
7142.82225,0.01430511475
7144.775375,0.04482269287
7146.7285,0.03957748413
7148.681625,0.04053115845
7150.63475,0.07009506226
7152.587875,0.04482269287
7154.541,0.03051757813
7156.494125,0.06008148193
7158.44725,0.05149841309
7160.400375,0.02956390381
7162.3535,0.04577636719
7164.306625,0.03480911255
7166.25975,-0.01192092896
7168.212875,0.01001358032
7170.166,0.05722045898
7172.119125,0.03910064697
7174.07225,0.02670288086
7176.025375,0.06151199341
7177.9785,0.08726119995
7179.931625,0.05435943604
7181.88475,-0.01764297485
7183.837875,-0.008583068848
7185.791,0.05292892456
7187.744125,0.04386901855
7189.69725,0.02288818359
7191.650375,0.0171661377
7193.6035,-0.001907348633
7195.556625,0.01525878906
7197.50975,0.02813339233
7199.462875,-0.02527236938
7201.416,-0.03099441528
7203.369125,0.03290176392
7205.32225,0.04482269287
7207.275375,0.0205039978
7209.2285,0.01668930054
7211.181625,0.0147819519
7213.13475,0.02670288086
7215.087875,0.0638961792
7217.041,0.03576278687
7218.994125,-0.02908706665
7220.94725,-0.006198883057
7222.900375,0.004291534424
7224.8535,-0.03051757813
7226.806625,-0.008583068848
7228.75975,0.001907348633
7230.712875,0.04053115845
7232.666,0.1082420349
7234.619125,0.05388259888
7236.57225,0.01811981201
7238.525375,0.0376701355
7240.4785,-0.003337860107
7242.431625,-0.02241134644
7244.38475,-0.03290176392
7246.337875,-0.0319480896
7248.291,-0.001430511475
7250.244125,-0.01764297485
7252.19725,-0.0114440918
7254.150375,0.0205039978
7256.1035,0.0114440918
7258.056625,-0.008106231689
7260.00975,-0.01049041748
7261.962875,0.002861022949
7263.916,-0.01192092896
7265.869125,-0.01525878906
7267.82225,0.04482269287
7269.775375,0.07724761963
7271.7285,0.04243850708
7273.681625,0.02431869507
7275.63475,0.003337860107
7277.587875,-0.02288818359
7279.541,-0.003337860107
7281.494125,-0.0009536743164
7283.44725,-0.02479553223
7285.400375,0.002861022949
7287.3535,0.03242492676
7289.306625,0.02670288086
7291.25975,0.04434585571
7293.212875,0.02431869507
7295.166,-0.03099441528
7297.119125,-0.03099441528
7299.07225,-0.002384185791
7301.025375,0.007629394531
7302.9785,-0.03004074097
7304.931625,-0.04005432129
7306.88475,0.01335144043
7308.837875,0.01430511475
7310.791,0
7312.744125,0.04386901855
7314.69725,0.0581741333
7316.650375,0.03814697266
7318.6035,0.009059906006
7320.556625,-0.03004074097
7322.50975,-0.03719329834
7324.462875,-0.004291534424
7326.416,0.03957748413
7328.369125,0.03862380981
7330.32225,0.01382827759
7332.275375,-0.00524520874
7334.2285,-0.002861022949
7336.181625,0.02336502075
7338.13475,-0.0004768371582
7340.087875,-0.02384185791
7342.041,0.02098083496
7343.994125,0.05674362183
7345.94725,0.05769729614
7347.900375,0.05626678467
7349.8535,0.05340576172
7351.806625,0.04720687866
7353.75975,0.05960464478
7355.712875,0.08153915405
7357.666,0.04577636719
7359.619125,0.0114440918
7361.57225,0.03051757813
7363.525375,0.04577636719
7365.4785,0.09298324585
7367.431625,0.159740448
7369.38475,0.2202987671
7371.337875,0.2875328064
7373.291,0.283241272
7375.244125,0.244140625
7377.19725,0.2527236938
7379.150375,0.2703666687
7381.1035,0.2593994141
7383.056625,0.2479553223
7385.00975,0.2818107605
7386.962875,0.2841949463
7388.916,0.2470016479
7390.869125,0.2698898315
7392.82225,0.2880096436
7394.775375,0.280380249
7396.7285,0.3094673157
7398.681625,0.3280639648
7400.63475,0.2918243408
7402.587875,0.2188682556
7404.541,0.1626014709
7406.494125,0.1440048218
7408.44725,0.1168251038
7410.400375,0.07343292236
7412.3535,0.05531311035
7414.306625,0.0638961792
7416.25975,0.06055831909
7418.212875,0.0004768371582
7420.166,-0.03623962402
7422.119125,-0.006198883057
7424.07225,-0.01049041748
7426.025375,-0.03051757813
7427.9785,-0.009059906006
7429.931625,-0.001430511475
7431.88475,-0.04243850708
7433.837875,-0.04529953003
7435.791,0.0114440918
7437.744125,-0.01335144043
7439.69725,-0.05578994751
7441.650375,-0.02527236938
7443.6035,-0.05531311035
7445.556625,-0.0958442688
7447.50975,-0.07772445679
7449.462875,-0.1139640808
7451.416,-0.1335144043
7453.369125,-0.07581710815
7455.32225,-0.05102157593
7457.275375,-0.07724761963
7459.2285,-0.08106231689
7461.181625,-0.04386901855
7463.13475,-0.01239776611
7465.087875,-0.01907348633
7467.041,-0.04434585571
7468.994125,-0.0696182251
7470.94725,-0.08106231689
7472.900375,-0.07438659668
7474.8535,-0.04625320435
7476.806625,-0.01668930054
7478.75975,-0.01955032349
7480.712875,-0.03862380981
7482.666,-0.04243850708
7484.619125,-0.03147125244
7486.57225,-0.01859664917
7488.525375,-0.04291534424
7490.4785,-0.08583068848
7492.431625,-0.07343292236
7494.38475,-0.01907348633
7496.337875,0.01668930054
7498.291,0.01955032349
7500.244125,0.00524520874
7502.19725,0.01382827759
7504.150375,0.08201599121
7506.1035,0.1878738403
7508.056625,0.3066062927
7510.00975,0.4243850708
7511.962875,0.5035400391
7513.916,0.5383491516
7515.869125,0.5984306335
7517.82225,0.6699562073
7519.775375,0.6794929504
7521.7285,0.6937980652
7523.681625,0.7352828979
7525.63475,0.7653236389
7527.587875,0.8854866028
7529.541,1.084804535
7531.494125,1.222133636
7533.44725,1.356124878
7535.400375,1.601696014
7537.3535,1.837253571
7539.306625,1.890182495
7541.25975,1.789093018
7543.212875,1.635074615
7545.166,1.467227936
7547.119125,1.211643219
7549.07225,0.7939338684
7551.025375,0.3690719604
7552.9785,0.1063346863
7554.931625,-0.0147819519
7556.88475,-0.123500824
7558.837875,-0.2279281616
7560.791,-0.2422332764
7562.744125,-0.189781189
7564.69725,-0.1373291016
7566.650375,-0.1635551453
7568.6035,-0.2026557922
7570.556625,-0.2121925354
7572.50975,-0.2822875977
7574.462875,-0.3128051758
7576.416,-0.2818107605
7578.369125,-0.2527236938
7580.32225,-0.1335144043
7582.275375,0.05626678467
7584.2285,0.2446174622
7586.181625,0.4072189331
7588.13475,0.4925727844
7590.087875,0.5149841309
7592.041,0.4901885986
7593.994125,0.4620552063
7595.94725,0.4620552063
7597.900375,0.4644393921
7599.8535,0.4625320435
7601.806625,0.4329681396
7603.75975,0.3848075867
7605.712875,0.3571510315
7607.666,0.3590583801
7609.619125,0.3395080566
7611.57225,0.3151893616
7613.525375,0.3371238708
7615.4785,0.3089904785
7617.431625,0.2770423889
7619.38475,0.3342628479
7621.337875,0.3442764282
7623.291,0.3223419189
7625.244125,0.3485679626
7627.19725,0.3600120544
7629.150375,0.3499984741
7631.1035,0.3228187561
7633.056625,0.3089904785
7635.00975,0.3156661987
7636.962875,0.3108978271
7638.916,0.3266334534
7640.869125,0.346660614
7642.82225,0.3132820129
7644.775375,0.2846717834
7646.7285,0.3442764282
7648.681625,0.3800392151
7650.63475,0.3371238708
7652.587875,0.3528594971
7654.541,0.3991127014
7656.494125,0.3700256348
7658.44725,0.3328323364
7660.400375,0.3519058228
7662.3535,0.3643035889
7664.306625,0.3471374512
7666.25975,0.3728866577
7668.212875,0.3952980042
7670.166,0.373840332
7672.119125,0.3700256348
7674.07225,0.382900238
7676.025375,0.4000663757
7677.9785,0.4138946533
7679.931625,0.4067420959
7681.88475,0.4115104675
7683.837875,0.4224777222
7685.791,0.3995895386
7687.744125,0.3962516785
7689.69725,0.4210472107
7691.650375,0.4315376282
7693.6035,0.4343986511
7695.556625,0.440120697
7697.50975,0.4553794861
7699.462875,0.4396438599
7701.416,0.4119873047
7703.369125,0.424861908
7705.32225,0.4591941833
7707.275375,0.4968643188
7709.2285,0.4782676697
7711.181625,0.4487037659
7713.13475,0.4487037659
7715.087875,0.4386901855
7717.041,0.509262085
7718.994125,0.5974769592
7720.94725,0.5946159363
7722.900375,0.5798339844
7724.8535,0.5993843079
7726.806625,0.6055831909
7728.75975,0.5836486816
7730.712875,0.5927085876
7732.666,0.6170272827
7734.619125,0.6351470947
7736.57225,0.6608963013
7738.525375,0.6823539734
7740.4785,0.7238388062
7742.431625,0.7467269897
7744.38475,0.7438659668
7746.337875,0.7739067078
7748.291,0.8001327515
7750.244125,0.8201599121
7752.19725,0.8497238159
7754.150375,0.8635520935
7756.1035,0.8835792542
7758.056625,0.9007453918
7760.00975,0.9436607361
7761.962875,0.9827613831
7763.916,0.9694099426
7765.869125,1.000881195
7767.82225,1.043319702
7769.775375,1.03187561
7771.7285,1.010894775
7773.681625,1.026153564
7775.63475,1.065731049
7777.587875,1.063346863
7779.541,1.062393188
7781.494125,1.103878021
7783.44725,1.105308533
7785.400375,1.096248627
7787.3535,1.111507416
7789.306625,1.086235046
7791.25975,1.066207886
7793.212875,1.081466675
7795.166,1.091480255
7797.119125,1.091957092
7799.07225,1.050949097
7801.025375,1.023292542
7802.9785,1.051425934
7804.931625,1.047134399
7806.88475,0.9984970093
7808.837875,0.955581665
7810.791,0.9512901306
7812.744125,0.928401947
7814.69725,0.8497238159
7816.650375,0.8268356323
7818.6035,0.8025169373
7820.556625,0.741481781
7822.50975,0.7224082947
7824.462875,0.6952285767
7826.416,0.6504058838
7828.369125,0.6098747253
7830.32225,0.5674362183
7832.275375,0.5197525024
7834.2285,0.4577636719
7836.181625,0.3991127014
7838.13475,0.340461731
7840.087875,0.2970695496
7842.041,0.3018379211
7843.994125,0.2751350403
7845.94725,0.1893043518
7847.900375,0.156879425
7849.8535,0.1583099365
7851.806625,0.09775161743
7853.75975,0.04625320435
7855.712875,0.02861022949
7857.666,-0.02288818359
7859.619125,-0.05531311035
7861.57225,-0.04816055298
7863.525375,-0.07247924805
7865.4785,-0.09822845459
7867.431625,-0.1068115234
7869.38475,-0.1049041748
7871.337875,-0.084400177
7873.291,-0.1134872437
7875.244125,-0.1511573792
7877.19725,-0.1420974731
7879.150375,-0.1640319824
7881.1035,-0.168800354
7883.056625,-0.1282691956
7885.00975,-0.1473426819
7886.962875,-0.1792907715
7888.916,-0.1912117004
7890.869125,-0.2145767212
7892.82225,-0.2136230469
7894.775375,-0.2126693726
7896.7285,-0.2098083496
7898.681625,-0.1916885376
7900.63475,-0.195980072
7902.587875,-0.2145767212
7904.541,-0.2403259277
7906.494125,-0.2431869507
7908.44725,-0.2288818359
7910.400375,-0.2393722534
7912.3535,-0.2083778381
7914.306625,-0.1854896545
7916.25975,-0.2174377441
7918.212875,-0.1926422119
7920.166,-0.1797676086
7922.119475,-0.2017021179
7924.072418,-0.1749992371
7926.025361,-0.1516342163
7927.978304,-0.1697540283
7929.931247,-0.1888275146
7931.88419,-0.1921653748
7933.837133,-0.1940727234
7935.790076,-0.2069473267
7937.743019,-0.207901001
7939.695962,-0.1940727234
7941.648905,-0.1912117004
7943.601848,-0.2179145813
7945.554791,-0.2355575562
7947.507734,-0.1969337463
7949.460677,-0.1564025879
7951.41362,-0.1397132874
7953.366563,-0.1306533813
7955.319506,-0.1382827759
7957.272449,-0.1516342163
7959.225392,-0.156879425
7961.178335,-0.105381012
7963.131278,-0.05912780762
7965.084221,-0.08535385132
7967.037164,-0.09107589722
7968.990107,-0.06914138794
7970.94305,-0.08392333984
7972.895993,-0.09536743164
7974.848936,-0.08344650269
7976.801879,-0.1020431519
7978.754822,-0.1063346863
7980.707765,-0.08201599121
7982.660708,-0.09107589722
7984.613651,-0.1010894775
7986.566594,-0.09918212891
7988.519537,-0.09775161743
7990.47248,-0.1058578491
7992.425423,-0.1010894775
7994.378366,-0.07009506226
7996.331309,-0.04005432129
7998.284252,-0.02145767212
8000.237195,-0.0319480896
8002.190138,-0.01859664917
8004.143081,0.008583068848
8006.096024,-0.003814697266
8008.048967,-0.02002716064
8010.00191,-0.04243850708
8011.954853,-0.0524520874
8013.907796,-0.05149841309
8015.860739,-0.08201599121
8017.813682,-0.09393692017
8019.766625,-0.08916854858
8021.719568,-0.09155273438
8023.672511,-0.07247924805
8025.625454,-0.0376701355
8027.578397,-0.03051757813
8029.53134,-0.05388259888
8031.484283,-0.05483627319
8033.437226,-0.07486343384
8035.390169,-0.1082420349
8037.343112,-0.08487701416
8039.296055,-0.0638961792
8041.248998,-0.04100799561
8043.201941,-0.02098083496
8045.154884,-0.04625320435
8047.107827,-0.07390975952
8049.06077,-0.08916854858
8051.013713,-0.08678436279
8052.966656,-0.08106231689
8054.919599,-0.09489059448
8056.872542,-0.09679794312
8058.825485,-0.09632110596
8060.778428,-0.09870529175
8062.731371,-0.08964538574
8064.684314,-0.09775161743
8066.637257,-0.1134872437
8068.5902,-0.1101493835
8070.543143,-0.1034736633
8072.496086,-0.09965896606
8074.449029,-0.08535385132
8076.401972,-0.08535385132
8078.354915,-0.1101493835
8080.307858,-0.1358985901
8082.260801,-0.1487731934
8084.213744,-0.1106262207
8086.166687,-0.06818771362
8088.11963,-0.07486343384
8090.072573,-0.08010864258
8092.025516,-0.07009506226
8093.978459,-0.07772445679
8095.931402,-0.09393692017
8097.884345,-0.07677078247
8099.837288,-0.06341934204
8101.790231,-0.08010864258
8103.743174,-0.08678436279
8105.696117,-0.08964538574
8107.64906,-0.08487701416
8109.602003,-0.09870529175
8111.554946,-0.120639801
8113.507889,-0.1215934753
8115.460832,-0.1258850098
8117.413775,-0.1034736633
8119.366718,-0.07963180542
8121.319661,-0.0901222229
8123.272604,-0.0786781311
8125.225547,-0.04911422729
8127.17849,-0.05340576172
8129.131433,-0.06294250488
8131.084376,-0.05483627319
8133.037319,-0.07295608521
8134.990262,-0.1034736633
8136.943205,-0.1153945923
8138.896148,-0.1273155212
8140.849091,-0.1258850098
8142.802034,-0.1158714294
8144.754977,-0.1177787781
8146.70792,-0.09059906006
8148.660863,-0.06580352783
8150.613806,-0.09202957153
8152.566749,-0.09298324585
8154.519692,-0.07104873657
8156.472635,-0.1063346863
8158.425578,-0.1358985901
8160.378521,-0.1077651978
8162.331464,-0.1001358032
8164.284407,-0.1106262207
8166.23735,-0.09155273438
8168.190293,-0.07724761963
8170.143236,-0.07963180542
8172.096179,-0.07390975952
8174.049122,-0.04863739014
8176.002065,-0.0467300415
8177.955008,-0.1029968262
8179.907951,-0.1244544983
8181.860894,-0.09632110596
8183.813837,-0.09775161743
8185.76678,-0.1063346863
8187.719723,-0.1263618469
8189.672666,-0.1349449158
8191.625609,-0.1006126404
8193.578552,-0.09107589722
8195.531495,-0.1049041748
8197.484438,-0.1087188721
8199.437381,-0.1254081726
8201.390324,-0.1425743103
8203.343267,-0.1077651978
8205.29621,-0.06628036499
8207.249153,-0.07963180542
8209.202096,-0.09059906006
8211.155039,-0.07724761963
8213.107982,-0.08201599121
8215.060925,-0.09298324585
8217.013868,-0.09155273438
8218.966811,-0.09870529175
8220.919754,-0.09727478027
8222.872697,-0.1063346863
8224.82564,-0.123500824
8226.778583,-0.09870529175
8228.731526,-0.08201599121
8230.684469,-0.09536743164
8232.637412,-0.08630752563
8234.590355,-0.06008148193
8236.543298,-0.07486343384
8238.496241,-0.09393692017
8240.449184,-0.07295608521
8242.402127,-0.07390975952
8244.35507,-0.08392333984
8246.308013,-0.04625320435
8248.260956,-0.02288818359
8250.213899,-0.04625320435
8252.166842,-0.03814697266
8254.119785,-0.02336502075
8256.072728,-0.05769729614
8258.025671,-0.07438659668
8259.978614,-0.07057189941
8261.931557,-0.07152557373
8263.8845,-0.06437301636
8265.837443,-0.06437301636
8267.790386,-0.05674362183
8269.743329,-0.04720687866
8271.696272,-0.0376701355
8273.649215,-0.02765655518
8275.602158,-0.04291534424
8277.555101,-0.04768371582
8279.508044,-0.04959106445
8281.460987,-0.07295608521
8283.41393,-0.0467300415
8285.366873,0.003814697266
8287.319816,-0.02527236938
8289.272759,-0.0467300415
8291.225702,-0.01192092896
8293.178645,-0.009059906006
8295.131588,-0.009536743164
8297.084531,0.001430511475
8299.037474,-0.001907348633
8300.990417,0
8302.94336,-0.02336502075
8304.896303,-0.05865097046
8306.849246,-0.03290176392
8308.802189,-0.0114440918
8310.755132,-0.03671646118
8312.708075,-0.02527236938
8314.661018,-0.008583068848
8316.613961,-0.006675720215
8318.566904,0.01621246338
8320.519847,0.009536743164
8322.47279,-0.01907348633
8324.425733,-0.01668930054
8326.378676,-0.002384185791
8328.331619,0.01859664917
8330.284562,0.03576278687
8332.237505,0.03576278687
8334.190448,0.03147125244
8336.143391,0.02717971802
8338.096334,0.02574920654
8340.049277,0.01668930054
8342.00222,0.02145767212
8343.955163,0.04148483276
8345.908106,0.04243850708
8347.861049,0.06246566772
8349.813992,0.08916854858
8351.766935,0.07486343384
8353.719878,0.07057189941
8355.672821,0.08964538574
8357.625764,0.111579895
8359.578707,0.1616477966
8361.53165,0.2241134644
8363.484593,0.2641677856
8365.437536,0.2951622009
8367.390479,0.3228187561
8369.343422,0.3099441528
8371.296365,0.2794265747
8373.249308,0.3046989441
8375.202251,0.3175735474
8377.155194,0.2856254578
8379.108137,0.2989768982
8381.06108,0.3151893616
8383.014023,0.2999305725
8384.966966,0.2818107605
8386.919909,0.2574920654
8388.872852,0.271320343
8390.825795,0.3204345703
8392.778738,0.3266334534
8394.731681,0.2956390381
8396.684624,0.2603530884
8398.637567,0.1802444458
8400.59051,0.1001358032
8402.543453,0.09679794312
8404.496396,0.1020431519
8406.449339,0.09059906006
8408.402282,0.1091957092
8410.355225,0.08869171143
8412.308168,0.04625320435
8414.261111,0.06580352783
8416.214054,0.05578994751
8418.166997,0.01192092896
8420.11994,0.0147819519
8422.072883,-0.01382827759
8424.025826,-0.05769729614
8425.978769,-0.03337860107
8427.931712,-0.01525878906
8429.884655,-0.03004074097
8431.837598,-0.006675720215
8433.790541,0.02908706665
8435.743484,0.03480911255
8437.696427,0.04196166992
8439.64937,0.03051757813
8441.602313,-0.01764297485
8443.555256,-0.06914138794
8445.508199,-0.084400177
8447.461142,-0.06198883057
8449.414085,-0.05531311035
8451.367028,-0.09727478027
8453.319971,-0.1459121704
8455.272914,-0.1192092896
8457.225857,-0.07915496826
8459.1788,-0.09202957153
8461.131743,-0.1001358032
8463.084686,-0.08296966553
8465.037629,-0.08153915405
8466.990572,-0.1015663147
8468.943515,-0.1001358032
8470.896458,-0.08583068848
8472.849401,-0.08821487427
8474.802344,-0.08392333984
8476.755287,-0.08487701416
8478.70823,-0.09727478027
8480.661173,-0.1034736633
8482.614116,-0.1029968262
8484.567059,-0.084400177
8486.520002,-0.09393692017
8488.472945,-0.1020431519
8490.425888,-0.05388259888
8492.378831,-0.05769729614
8494.331774,-0.08249282837
8496.284717,-0.04386901855
8498.23766,0.0147819519
8500.190603,0.1373291016
8502.143546,0.3027915955
8504.096489,0.4153251648
8506.049432,0.4825592041
8508.002375,0.5087852478
8509.955318,0.5331039429
8511.908261,0.5917549133
8513.861204,0.6308555603
8515.814147,0.6184577942
8517.76709,0.629901886
8519.720033,0.7238388062
8521.672976,0.8096694946
8523.625919,0.904083252
8525.578862,1.052856445
8527.531805,1.226425171
8529.484748,1.523017883
8531.437691,1.829624176
8533.390634,1.969814301
8535.343577,1.931190491
8537.29652,1.695632935
8539.249463,1.445770264
8541.202406,1.262187958
8543.155349,0.8702278137
8545.108292,0.3337860107
8547.061235,-0.01955032349
8549.014178,-0.2479553223
8550.967121,-0.4091262817
8552.920064,-0.4601478577
8554.873007,-0.5145072937
8556.82595,-0.5097389221
8558.778893,-0.4000663757
8560.731836,-0.3228187561
8562.684779,-0.3366470337
8564.637722,-0.3747940063
8566.590665,-0.3771781921
8568.543608,-0.3509521484
8570.496551,-0.2522468567
8572.449494,-0.04148483276
8574.402437,0.2155303955
8576.35538,0.4172325134
8578.308323,0.5626678467
8580.261266,0.657081604
8582.214209,0.6608963013
8584.167152,0.6356239319
8586.120095,0.5965232849
8588.073038,0.5407333374
8590.025981,0.5402565002
8591.978924,0.554561615
8593.931867,0.5116462708
8595.88481,0.452041626
8597.837753,0.4229545593
8599.790696,0.4005432129
8601.743639,0.3781318665
8603.696582,0.3805160522
8605.649525,0.3833770752
8607.602468,0.3695487976
8609.555411,0.3452301025
8611.508354,0.3318786621
8613.461297,0.3523826599
8615.41424,0.3724098206
8617.367183,0.3528594971
8619.320126,0.3280639648
8621.273069,0.3390312195
8623.226012,0.3337860107
8625.178955,0.3228187561
8627.131898,0.35572052
8629.084841,0.3719329834
8631.037784,0.3623962402
8632.990727,0.3800392151
8634.94367,0.3604888916
8636.896613,0.3046989441
8638.849556,0.3094673157
8640.802499,0.3304481506
8642.755442,0.3237724304
8644.708385,0.3509521484
8646.661328,0.3848075867
8648.614271,0.3838539124
8650.567214,0.3776550293
8652.520157,0.3743171692
8654.4731,0.3905296326
8656.426043,0.4000663757
8658.378986,0.3910064697
8660.331929,0.4048347473
8662.284872,0.3976821899
8664.237815,0.3972053528
8666.190758,0.4377365112
8668.143701,0.415802002
8670.096644,0.3962516785
8672.049587,0.4334449768
8674.00253,0.4243850708
8675.955473,0.422000885
8677.908416,0.4634857178
8679.861359,0.4925727844
8681.814302,0.4959106445
8683.767245,0.4749298096
8685.720188,0.4529953003
8687.673131,0.4463195801
8689.626074,0.4591941833
8691.579017,0.4620552063
8693.53196,0.4534721375
8695.484903,0.4639625549
8697.437846,0.4715919495
8699.390789,0.509262085
8701.343732,0.5502700806
8703.296675,0.5393028259
8705.249618,0.5450248718
8707.202561,0.5741119385
8709.155504,0.5803108215
8711.108447,0.5922317505
8713.06139,0.6127357483
8715.014333,0.6051063538
8716.967276,0.6103515625
8718.920219,0.6437301636
8720.873162,0.6504058838
8722.826105,0.6456375122
8724.779048,0.6766319275
8726.731991,0.714302063
8728.684934,0.7433891296
8730.637877,0.7610321045
8732.59082,0.7739067078
8734.543763,0.786781311
8736.496706,0.8015632629
8738.449649,0.8325576782
8740.402592,0.8654594421
8742.355535,0.9169578552
8744.308478,0.9598731995
8746.261421,0.9779930115
8748.214364,1.012802124
8750.167307,1.025676727
8752.12025,1.045703888
8754.073193,1.086711884
8756.026136,1.10578537
8757.979079,1.132011414
8759.932022,1.140594482
8761.884965,1.133441925
8763.837908,1.174449921
8765.790851,1.239776611
8767.743794,1.266479492
8769.696737,1.260757446
8771.64968,1.262664795
8773.602623,1.266479492
8775.555566,1.286029816
8777.508509,1.309394836
8779.461452,1.303672791
8781.414395,1.302242279
8783.367338,1.309394836
8785.320281,1.303195953
8787.273224,1.283168793
8789.226167,1.284599304
8791.17911,1.296043396
8793.132053,1.288890839
8795.084996,1.280784607
8797.037939,1.271247864
8798.990882,1.249313354
8800.943825,1.229286194
8802.896768,1.207351685
8804.849711,1.167297363
8806.802654,1.140594482
8808.755597,1.130580902
8810.70854,1.078605652
8812.661483,1.012802124
8814.614426,0.9560585022
8816.567369,0.8811950684
8818.520312,0.8430480957
8820.473255,0.8153915405
8822.426198,0.7276535034
8824.379141,0.6508827209
8826.332084,0.6060600281
8828.285027,0.560760498
8830.23797,0.5187988281
8832.190913,0.4639625549
8834.143856,0.3991127014
8836.096799,0.3180503845
8838.049742,0.253200531
8840.002685,0.2384185791
8841.955628,0.1931190491
8843.908571,0.1549720764
8845.861514,0.1673698425
8847.814457,0.1368522644
8849.7674,0.1077651978
8851.720343,0.0638961792
8853.673286,-0.03147125244
8855.626229,-0.05960464478
8857.579172,-0.07057189941
8859.532115,-0.1211166382
8861.485058,-0.1158714294
8863.438001,-0.1068115234
8865.390944,-0.1449584961
8867.343887,-0.1668930054
8869.29683,-0.2055168152
8871.249773,-0.2298355103
8873.202716,-0.1940727234
8875.155659,-0.1955032349
8877.108602,-0.2470016479
8879.061545,-0.2541542053
8881.014488,-0.2083778381
8882.967431,-0.1893043518
8884.920374,-0.2088546753
8886.873317,-0.2365112305
8888.82626,-0.2617835999
8890.779203,-0.2717971802
8892.732146,-0.2660751343
8894.685089,-0.2636909485
8896.638032,-0.2684593201
8898.590975,-0.2660751343
8900.543918,-0.2689361572
8902.496861,-0.2727508545
8904.449804,-0.26512146
8906.402747,-0.262260437
8908.35569,-0.2679824829
8910.308633,-0.2636909485
8912.261576,-0.2517700195
8914.214519,-0.2536773682
8916.167462,-0.2555847168
8918.120405,-0.2498626709
8920.073348,-0.2427101135
8922.026291,-0.2408027649
8923.979234,-0.2374649048
8925.932177,-0.2245903015
8927.88512,-0.2202987671
8929.838063,-0.1983642578
8931.791006,-0.1611709595
8933.743949,-0.1444816589
8935.696892,-0.1635551453
8937.649835,-0.2174377441
8939.602778,-0.2093315125
8941.555721,-0.168800354
8943.508664,-0.1854896545
8945.461607,-0.1831054688
8947.41455,-0.1711845398
8949.367493,-0.1926422119
8951.320436,-0.17786026
8953.273379,-0.1444816589
8955.226322,-0.1549720764
8957.179265,-0.1721382141
8959.132208,-0.1678466797
8961.085151,-0.1602172852
8963.038094,-0.1645088196
8964.991037,-0.1640319824
8966.94398,-0.147819519
8968.896923,-0.1430511475
8970.849866,-0.1306533813
8972.802809,-0.09298324585
8974.755752,-0.084400177
8976.708695,-0.1153945923
8978.661638,-0.123500824
8980.614581,-0.120639801
8982.567524,-0.1449584961
8984.520467,-0.1540184021
8986.47341,-0.1382827759
8988.426353,-0.1492500305
8990.379296,-0.159740448
8992.332239,-0.1363754272
8994.285182,-0.1220703125
8996.238125,-0.129699707
8998.191068,-0.1273155212
9000.144011,-0.1044273376
9002.096954,-0.08916854858
9004.049897,-0.09679794312
9006.00284,-0.1168251038
9007.955783,-0.1420974731
9009.908726,-0.111579895
9011.861669,-0.08010864258
9013.814612,-0.1087188721
9015.767555,-0.1187324524
9017.720498,-0.1277923584
9019.673441,-0.1368522644
9021.626384,-0.1211166382
9023.579327,-0.1273155212
9025.53227,-0.1182556152
9027.485213,-0.08392333984
9029.438156,-0.1034736633
9031.391099,-0.1406669617
9033.344042,-0.1168251038
9035.296985,-0.09870529175
9037.249928,-0.1239776611
9039.202871,-0.1397132874
9041.155814,-0.1354217529
9043.108757,-0.1354217529
9045.0617,-0.1540184021
9047.014643,-0.1411437988
9048.967586,-0.1058578491
9050.920529,-0.1306533813
9052.873472,-0.1339912415
9054.826415,-0.1177787781
9056.779358,-0.1702308655
9058.732301,-0.1735687256
9060.685244,-0.13256073
9062.638187,-0.168800354
9064.59113,-0.1935958862
9066.544073,-0.1802444458
9068.497016,-0.1907348633
9070.449959,-0.1916885376
9072.402902,-0.171661377
9074.355845,-0.1411437988
9076.308788,-0.1339912415
9078.261731,-0.159740448
9080.214674,-0.1583099365
9082.167617,-0.1630783081
9084.12056,-0.1940727234
9086.073503,-0.1883506775
9088.026446,-0.1769065857
9089.979389,-0.1668930054
9091.932332,-0.150680542
9093.885275,-0.1492500305
9095.838218,-0.1153945923
9097.791161,-0.08773803711
9099.744104,-0.1311302185
9101.697047,-0.1602172852
9103.64999,-0.1549720764
9105.602933,-0.1630783081
9107.555876,-0.1826286316
9109.508819,-0.1950263977
9111.461762,-0.1783370972
9113.414705,-0.1564025879
9115.367648,-0.1606941223
9117.320591,-0.1444816589
9119.273534,-0.1020431519
9121.226477,-0.1029968262
9123.17942,-0.1301765442
9125.132363,-0.1239776611
9127.085306,-0.1215934753
9129.038249,-0.1225471497
9130.991192,-0.1239776611
9132.944135,-0.1320838928
9134.897078,-0.1196861267
9136.850021,-0.1177787781
9138.802964,-0.1311302185
9140.755907,-0.129699707
9142.70885,-0.1378059387
9144.661793,-0.1559257507
9146.614736,-0.1463890076
9148.567679,-0.1130104065
9150.520622,-0.09489059448
9152.473565,-0.1158714294
9154.426508,-0.1640319824
9156.379451,-0.1626014709
9158.332394,-0.1263618469
9160.285337,-0.1039505005
9162.23828,-0.0901222229
9164.191223,-0.1091957092
9166.144166,-0.1120567322
9168.097109,-0.08916854858
9170.050052,-0.1192092896
9172.002995,-0.1373291016
9173.955938,-0.1149177551
9175.908881,-0.123500824
9177.861824,-0.1082420349
9179.814767,-0.1077651978
9181.76771,-0.1492500305
9183.720653,-0.1516342163
9185.673596,-0.150680542
9187.626539,-0.1468658447
9189.579482,-0.1397132874
9191.532425,-0.1425743103
9193.485368,-0.1268386841
9195.438311,-0.1282691956
9197.391254,-0.1454353333
9199.344197,-0.1473426819
9201.29714,-0.1335144043
9203.250083,-0.102519989
9205.203026,-0.08535385132
9207.155969,-0.102519989
9209.108912,-0.1177787781
9211.061855,-0.09965896606
9213.014798,-0.08916854858
9214.967741,-0.1163482666
9216.920684,-0.1177787781
9218.873627,-0.084400177
9220.82657,-0.06723403931
9222.779513,-0.07104873657
9224.732456,-0.08773803711
9226.685399,-0.1034736633
9228.638342,-0.09441375732
9230.591285,-0.08392333984
9232.544228,-0.1063346863
9234.497171,-0.114440918
9236.450114,-0.1034736633
9238.403057,-0.1168251038
9240.356,-0.1277923584
9242.3093,-0.1268386841
9244.262424,-0.1120567322
9246.215548,-0.0958442688
9248.168672,-0.09536743164
9250.121796,-0.06866455078
9252.07492,-0.07820129395
9254.028044,-0.1215934753
9255.981168,-0.06723403931
9257.934292,-0.03242492676
9259.887416,-0.07009506226
9261.84054,-0.05531311035
9263.793664,-0.05054473877
9265.746788,-0.07677078247
9267.699912,-0.075340271
9269.653036,-0.08201599121
9271.60616,-0.1034736633
9273.559284,-0.09727478027
9275.512408,-0.1015663147
9277.465532,-0.1244544983
9279.418656,-0.1139640808
9281.37178,-0.1106262207
9283.324904,-0.1153945923
9285.278028,-0.08678436279
9287.231152,-0.06628036499
9289.184276,-0.05197525024
9291.1374,-0.03290176392
9293.090524,-0.05197525024
9295.043648,-0.07104873657
9296.996772,-0.06198883057
9298.949896,-0.04959106445
9300.90302,-0.03862380981
9302.856144,-0.03862380981
9304.809268,-0.03528594971
9306.762392,-0.0262260437
9308.715516,-0.0171661377
9310.66864,-0.0319480896
9312.621764,-0.06198883057
9314.574888,-0.05531311035
9316.528012,-0.05054473877
9318.481136,-0.04529953003
9320.43426,-0.02670288086
9322.387384,-0.04291534424
9324.340508,-0.0524520874
9326.293632,-0.0467300415
9328.246756,-0.05722045898
9330.19988,-0.05960464478
9332.153004,-0.05197525024
9334.106128,-0.03576278687
9336.059252,-0.01287460327
9338.012376,-0.02384185791
9339.9655,-0.03051757813
9341.918624,0.02384185791
9343.871748,0.01525878906
9345.824872,-0.06246566772
9347.777996,-0.06484985352
9349.73112,-0.05960464478
9351.684244,-0.08678436279
9353.637368,-0.04529953003
9355.590492,0.006675720215
